0.017225,0.012919,0.012919,0.017225,0.012919,0.020813,0.021531,0.023684,0.040191,0.037321,0.037321,0.045215,0.04378,0.02512,0.012201,0.0093301,0.014354,0.017943,0.010766,0.012201,0.014354,0.025837,0.040191,0.049522,0.050957,0.049522,0.050957,0.060287,0.0811,0.096172,0.10407,0.11627,0.14282,0.17727,0.19306,0.17871,0.17584,0.1823,0.18876,0.1988,0.21818,0.25478,0.28565,0.31651,0.34665,0.36388,0.37536,0.39474,0.44426,0.49737,0.53684,0.59426,0.66316,0.71914,0.78445,0.86196,0.90431,0.94091,0.98756,1.0242,1.0758,1.1196,1.1505,1.1785,1.2086,1.2352,1.2409,1.2029,1.1569,1.1282,1.0644,0.98397,0.90502,0.84115,0.7823,0.70048,0.65096,0.60718,0.52823,0.45,0.36388,0.29713,0.23541,0.16148,0.10909,0.076794,0.047368,0.02512,0.017943,0.016507,0.017943,0.022249,0.033014,0.045215,0.055981,0.058852,0.068182,0.073923,0.066746,0.069617,0.054545,0.046651,0.057416,0.048086,0.039474,0.037321,0.035167,0.040909,0.048086,0.047368,0.042344,0.037321,0.044498,0.043062,0.033014,0.030861,0.036603,0.052392,0.053828,0.047368,0.04378,0.048804,0.059569,0.06244,0.050957,0.049522,0.055263,0.048086,0.049522,0.043062,0.030861,0.028708,0.030144,0.032297,0.038038,0.042344,0.041627,0.046651,0.048086,0.050957,0.055263,0.056699,0.056699,0.054545,0.054545,0.050957,0.049522,0.053828,0.055263,0.045933,0.044498,0.047368,0.048804,0.056699,0.063158,0.072488,0.0689,0.048086,0.039474,0.045215,0.053828,0.058134,0.05311,0.045933,0.045933,0.043062,0.032297,0.028708,0.033732,0.03445,0.037321,0.04378,0.046651,0.049522,0.041627,0.040191,0.04378,0.038756,0.037321,0.032297,0.030144,0.03445,0.033732,0.038756,0.045933,0.050957,0.053828,0.057416,0.041627,0.02512,0.048086,0.06244,0.055981,0.048086,0.044498,0.049522,0.045933,0.054545,0.065311,0.055981,0.050239,0.039474,0.033732,0.046651,0.057416,0.066746,0.06244,0.05311,0.051675,0.054545,0.06244,0.061722,0.066029,0.060287,0.050239,0.055981,0.061722,0.061005,0.050957,0.046651,0.047368,0.055981,0.06244,0.055263,0.048804,0.050239,0.050957,0.045215,0.040909,0.040909,0.045933,0.049522,0.051675,0.048086,0.038756,0.030144,0.02799,0.037321,0.046651,0.051675,0.058852,0.061722,0.057416,0.054545,0.052392,0.050239,0.055981,0.053828,0.039474,0.040909,0.044498,0.045933,0.051675,0.046651,0.044498,0.046651,0.045215,0.043062,0.048086,0.058852,0.064593,0.063158,0.067464,0.076077,0.081818,0.081818,0.07823,0.077512,0.078947,0.085407,0.0811,0.069617,0.063876,0.061005,0.07177,0.073923,0.061005,0.050239,0.064593,0.089713,0.086124,0.073206,0.070335,0.081818,0.1012,0.11699,0.11627,0.099761,0.093301,0.093301,0.097608,0.092584,0.079665,0.078947,0.086842,0.091866,0.083254,0.082536,0.088995,0.091866,0.094737,0.10048,0.1055,0.10048,0.1012,0.10191,0.093301,0.097608,0.10263,0.099043,0.10335,0.1055,0.10191,0.096172,0.081818,0.0811,0.085407,0.082536,0.096172,0.12057,0.12919,0.12919,0.12775,0.11627,0.11483,0.10981,0.09689,0.10407,0.1055,0.094019,0.08756,0.081818,0.081818,0.088995,0.094737,0.096172,0.098325,0.10837,0.1134,0.11268,0.11411,0.10407,0.097608,0.11196,0.12919,0.13565,0.13995,0.13493,0.14856,0.16435,0.14856,0.15933,0.1622,0.13923,0.1177,0.093301,0.066029,0.059569,0.073923,0.083971,0.093301,0.088995,0.082536,0.086124,0.091148,0.09689,0.096172,0.093301,0.090431,0.086124,0.089713,0.10048,0.10263,0.09689,0.098325,0.10191,0.10694,0.11411,0.11124,0.10478,0.09689,0.094019,0.10191,0.098325,0.096172,0.10048,0.091866,0.092584,0.094737,0.089713,0.093301,0.092584,0.085407,0.07823,0.068182,0.061722,0.074641,0.091148,0.086124,0.07823,0.075359,0.066746,0.058852,0.068182,0.077512,0.074641,0.070335,0.058852,0.048804,0.069617,0.084689,0.078947,0.081818,0.078947,0.073923,0.072488,0.073206,0.076794,0.072488,0.072488,0.0689,0.07177,0.07177,0.056699,0.055981,0.066746,0.073206,0.074641,0.078947,0.07823,0.075359,0.068182,0.064593,0.07177,0.069617,0.066746,0.057416,0.059569,0.074641,0.070335,0.066029,0.063876,0.063876,0.07177,0.07177,0.061005,0.060287,0.066029,0.058134,0.053828,0.042344,0.044498,0.048086,0.043062,0.051675,0.050239,0.053828,0.06244,0.061722,0.057416,0.060287,0.061005,0.058852,0.046651,0.040909,0.06244,0.073923,0.076794,0.073923,0.0689,0.065311,0.064593,0.076794,0.077512,0.072488,0.066746,0.057416,0.041627,0.039474,0.06244,0.070335,0.070335,0.07177,0.073923,0.074641,0.073206,0.075359,0.067464,0.06244,0.052392,0.040191,0.055981,0.066029,0.056699,0.066029,0.058852,0.045933,0.052392,0.055263,0.070335,0.071053,0.073923,0.083254,0.077512,0.074641,0.072488,0.0811,0.092584,0.08756,0.08756,0.094019,0.09689,0.089713,0.080383,0.083254,0.07823,0.074641,0.083254,0.088278,0.092584,0.091866,0.076077,0.073923,0.088995,0.092584,0.095455,0.094737,0.085407,0.084689,0.084689,0.07823,0.073923,0.070335,0.075359,0.076794,0.063158,0.059569,0.065311,0.072488,0.075359,0.072488,0.077512,0.076794,0.069617,0.081818,0.090431,0.091866,0.092584,0.088278,0.093301,0.098325,0.09689,0.096172,0.086842,0.077512,0.08756,0.10981,0.12847,0.13134,0.13062,0.12201,0.10478,0.096172,0.099043,0.093301,0.08756,0.094737,0.097608,0.10263,0.097608,0.099043,0.10263,0.097608,0.1012,0.10478,0.10694,0.10622,0.10837,0.10694,0.10766,0.10909,0.10478,0.10263,0.1055,0.10407,0.10407,0.10407,0.10622,0.11627,0.12201,0.12488,0.12344,0.11699,0.11124,0.1299,0.15,0.15646,0.1622,0.15144,0.14498,0.14928,0.15789,0.1622,0.15646,0.1378,0.11986,0.10335,0.076077,0.077512,0.090431,0.10048,0.092584,0.070335,0.059569,0.066746,0.098325,0.12057,0.12919,0.12847,0.12775,0.13134,0.12775,0.11986,0.098325,0.094019,0.099043,0.091148,0.082536,0.080383,0.091866,0.11483,0.13421,0.13421,0.13278,0.13278,0.12919,0.12775,0.12632,0.12344,0.12344,0.12775,0.12416,0.11842,0.11053,0.10191,0.10407,0.11053,0.12344,0.1299,0.12201,0.12057,0.11555,0.10335,0.10766,0.11555,0.11555,0.11124,0.10694,0.11124,0.11124,0.10694,0.10335,0.10263,0.10837,0.1134,0.10981,0.099043,0.094019,0.097608,0.097608,0.090431,0.079665,0.077512,0.088995,0.091866,0.094019,0.092584,0.081818,0.081818,0.088278,0.091866,0.097608,0.083254,0.073923,0.094019,0.10048,0.090431,0.091866,0.10478,0.10048,0.088278,0.085407,0.094019,0.10622,0.10407,0.094737,0.083254,0.0811,0.079665,0.0689,0.05311,0.047368,0.050239,0.055263,0.065311,0.054545,0.061005,0.073923,0.071053,0.063876,0.058852,0.0689,0.072488,0.08756,0.10263,0.09689,0.081818,0.081818,0.099043,0.091866,0.070335,0.054545,0.056699,0.066746,0.063158,0.066029,0.079665,0.080383,0.082536,0.091866,0.098325,0.10981,0.099761,0.090431,0.096172,0.088995,0.079665,0.080383,0.075359,0.0689,0.073206,0.0689,0.071053,0.076794,0.077512,0.082536,0.088995,0.089713,0.086124,0.08756,0.081818,0.084689,0.082536,0.073206,0.074641,0.07823,0.076794,0.064593,0.065311,0.070335,0.075359,0.091866,0.09689,0.099043,0.10694,0.098325,0.098325,0.10981,0.11124,0.10478,0.08756,0.086842,0.10191,0.10766,0.1055,0.10478,0.11196,0.11196,0.10335,0.091866,0.091866,0.10407,0.1134,0.10766,0.1055,0.10622,0.10478,0.1134,0.11627,0.11842,0.12919,0.14211,0.15144,0.16077,0.16579,0.16077,0.15502,0.15072,0.14426,0.13493,0.13206,0.13565,0.13923,0.15718,0.16507,0.1622,0.15431,0.14569,0.15574,0.16148,0.15502,0.16364,0.18445,0.19522,0.19665,0.18876,0.19809,0.2067,0.20742,0.21172,0.20742,0.20311,0.18589,0.17297,0.16794,0.17153,0.17799,0.16077,0.17225,0.19019,0.18373,0.17943,0.16579,0.16651,0.16651,0.16148,0.16794,0.1701,0.18158,0.18517,0.18086,0.18517,0.19809,0.21388,0.22679,0.23254,0.22536,0.22033,0.21746,0.21531,0.211,0.20526,0.20311,0.19737,0.1823,0.17727,0.17225,0.14785,0.15646,0.18373,0.18589,0.1744,0.16148,0.13636,0.11627,0.11555,0.11555,0.10335,0.085407,0.083254,0.082536,0.0689,0.068182,0.085407,0.086842,0.083971,0.082536,0.0689,0.076794,0.088278,0.084689,0.082536,0.07823,0.077512,0.091866,0.091148,0.074641,0.070335,0.076077,0.073923,0.066029,0.064593,0.069617,0.083971,0.088278,0.085407,0.088995,0.086842,0.060287,0.045933,0.060287,0.063876,0.06244,0.058852,0.054545,0.049522,0.05311,0.057416,0.054545,0.067464,0.073923,0.067464,0.065311,0.063876,0.064593,0.06244,0.058134,0.066029,0.081818,0.088995,0.084689,0.073923,0.088995,0.10335,0.11053,0.12919,0.12775,0.11986,0.099761,0.077512,0.069617,0.055263,0.051675,0.061005,0.073206,0.070335,0.05311,0.057416,0.0689,0.091866,0.11411,0.13062,0.14067,0.14426,0.16866,0.20383,0.21962,0.21388,0.23684,0.26627,0.27416,0.2878,0.31866,0.34378,0.36531,0.39545,0.41483,0.44067,0.47225,0.4945,0.52033,0.56699,0.61794,0.67105,0.75,0.82033,0.87488,0.92081,0.96029,1.0163,1.0687,1.1074,1.1591,1.228,1.2711,1.2976,1.3292,1.3342,1.3242,1.3048,1.2732,1.2136,1.1282,1.0514,0.97608,0.89785,0.811,0.73134,0.68182,0.62225,0.54976,0.45287,0.35024,0.29641,0.23612,0.18086,0.15,0.12703,0.099761,0.061005,0.053828,0.055981,0.048086,0.037321,0.051675,0.094019,0.10766,0.1055,0.099761,0.085407,0.078947,0.072488,0.063876,0.065311,0.070335,0.074641,0.084689,0.094737,0.095455,0.095455,0.1012,0.10909,0.1134,0.10909,0.10694,0.099761,0.09689,0.09689,0.092584,0.084689,0.064593,0.07177,0.092584,0.10048,0.10191,0.097608,0.093301,0.083254,0.078947,0.086842,0.085407,0.08756,0.094737,0.096172,0.091148,0.082536,0.097608,0.099761,0.094019,0.094737,0.086842,0.079665,0.071053,0.0811,0.069617,0.055263,0.069617,0.076077,0.07823,0.07823,0.083254,0.081818,0.077512,0.07823,0.07177,0.076077,0.083254,0.084689,0.084689,0.085407,0.083971,0.084689,0.086124,0.07823,0.078947,0.082536,0.078947,0.071053,0.069617,0.072488,0.07823,0.088278,0.082536,0.076077,0.066029,0.055981,0.058134,0.060287,0.070335,0.07823,0.084689,0.088995,0.088278,0.086124,0.088995,0.088995,0.091148,0.10191,0.09689,0.098325,0.11053,0.13278,0.14569,0.12273,0.10335,0.096172,0.095455,0.094737,0.08756,0.085407,0.084689,0.083254,0.07177,0.06244,0.066746,0.077512,0.076794,0.075359,0.078947,0.068182,0.073206,0.073923,0.067464,0.081818,0.078947,0.077512,0.078947,0.071053,0.068182,0.057416,0.052392,0.056699,0.079665,0.099043,0.091866,0.082536,0.073923,0.068182,0.0689,0.079665,0.083971,0.076794,0.074641,0.07177,0.072488,0.07177,0.075359,0.095455,0.091866,0.076794,0.0689,0.065311,0.07823,0.08756,0.086842,0.081818,0.073206,0.06244,0.06244,0.072488,0.07823,0.083254,0.091148,0.089713,0.075359,0.071053,0.078947,0.081818,0.091866,0.090431,0.088278,0.094019,0.091866,0.10263,0.10909,0.094737,0.084689,0.096172,0.098325,0.095455,0.090431,0.081818,0.083971,0.084689,0.086124,0.096172,0.09689,0.094737,0.10694,0.10622,0.096172,0.095455,0.10263,0.10694,0.10263,0.10191,0.10766,0.11124,0.10622,0.098325,0.094737,0.097608,0.10263,0.10766,0.11124,0.10694,0.1012,0.099043,0.096172,0.098325,0.093301,0.094737,0.10981,0.11914,0.12847,0.12919,0.12273,0.10837,0.095455,0.11124,0.1177,0.12201,0.12703,0.11411,0.10837,0.10263,0.11196,0.12273,0.12416,0.12129,0.11483,0.11555,0.12057,0.12703,0.12416,0.11411,0.10909,0.11124,0.11842,0.13493,0.1378,0.14282,0.15072,0.14713,0.14641,0.14713,0.14139,0.13852,0.14282,0.13636,0.1299,0.13206,0.14426,0.15359,0.14928,0.15287,0.15646,0.15861,0.14641,0.14139,0.15359,0.14282,0.14928,0.15861,0.15072,0.14641,0.14067,0.14282,0.14641,0.15072,0.15,0.1378,0.13565,0.14139,0.13995,0.14354,0.13349,0.11842,0.12488,0.12919,0.11986,0.11842,0.11268,0.11053,0.13565,0.13852,0.12919,0.13923,0.14211,0.14856,0.16292,0.16722,0.1622,0.15,0.15287,0.14928,0.13852,0.12775,0.11555,0.1134,0.12703,0.15861,0.18086,0.18732,0.18732,0.18086,0.16866,0.16435,0.15718,0.14928,0.15144,0.13995,0.11842,0.10048,0.088995,0.0811,0.080383,0.088278,0.095455,0.098325,0.1012,0.096172,0.092584,0.10407,0.11196,0.10048,0.094019,0.096172,0.094737,0.096172,0.086124,0.078947,0.085407,0.093301,0.1012,0.10407,0.10837,0.11124,0.10263,0.10837,0.11555,0.11053,0.10478,0.097608,0.08756,0.080383,0.10048,0.11914,0.11555,0.11483,0.11914,0.11627,0.11053,0.10622,0.094019,0.1012,0.11627,0.1134,0.1134,0.11555,0.10622,0.10191,0.10622,0.10622,0.099761,0.086842,0.089713,0.09689,0.09689,0.10191,0.10407,0.098325,0.095455,0.095455,0.094019,0.092584,0.092584,0.091148,0.086124,0.09689,0.099761,0.10048,0.10981,0.10766,0.11555,0.1134,0.093301,0.086842,0.096172,0.11124,0.10694,0.0811,0.071053,0.08756,0.089713,0.070335,0.077512,0.098325,0.091148,0.088995,0.095455,0.094019,0.08756,0.070335,0.057416,0.054545,0.066746,0.073206,0.08756,0.10048,0.094019,0.08756,0.084689,0.088278,0.089713,0.085407,0.086124,0.098325,0.10335,0.11124,0.11555,0.10837,0.10766,0.09689,0.091148,0.099043,0.11196,0.12057,0.11986,0.13565,0.15144,0.13708,0.12775,0.13134,0.1299,0.13708,0.14282,0.14354,0.13349,0.11555,0.11268,0.11699,0.12847,0.13278,0.13349,0.1299,0.11986,0.12344,0.1177,0.11196,0.11411,0.11411,0.12201,0.12344,0.1177,0.12632,0.13062,0.12847,0.13062,0.1378,0.13278,0.1134,0.10263,0.095455,0.094019,0.10407,0.10407,0.094737,0.10191,0.11053,0.10263,0.1012,0.10981,0.11986,0.13923,0.13923,0.11986,0.10335,0.08756,0.093301,0.1055,0.10766,0.1055,0.11268,0.1299,0.13636,0.13278,0.13565,0.14426,0.13493,0.13134,0.13421,0.12775,0.13134,0.1299,0.12847,0.13565,0.13923,0.14211,0.13708,0.12201,0.11986,0.1177,0.1055,0.1012,0.10766,0.11483,0.11411,0.10981,0.11986,0.12919,0.1299,0.12703,0.13278,0.14354,0.13206,0.12703,0.12919,0.12775,0.1299,0.12201,0.11627,0.1177,0.11842,0.13134,0.13421,0.1256,0.12416,0.11842,0.11483,0.11411,0.11699,0.1256,0.11986,0.10694,0.10694,0.10407,0.10191,0.10263,0.094019,0.095455,0.10335,0.1055,0.10478,0.1055,0.11053,0.10622,0.10335,0.10766,0.12488,0.13206,0.11053,0.10909,0.11627,0.10622,0.097608,0.098325,0.11124,0.12129,0.11842,0.10191,0.093301,0.10191,0.094019,0.081818,0.088278,0.09689,0.088278,0.073923,0.08756,0.11268,0.11842,0.11842,0.11699,0.10909,0.10909,0.1177,0.11914,0.11914,0.12129,0.11914,0.11196,0.10263,0.099761,0.10263,0.097608,0.093301,0.10048,0.10191,0.10407,0.10837,0.10909,0.10837,0.11196,0.1177,0.11124,0.10981,0.10694,0.10263,0.10909,0.11053,0.11196,0.11268,0.1177,0.1299,0.13062,0.11986,0.10622,0.089713,0.0811,0.076077,0.074641,0.07177,0.067464,0.070335,0.075359,0.083254,0.09689,0.11986,0.13421,0.14067,0.14282,0.14785,0.15431,0.15072,0.14139,0.1256,0.11411,0.097608,0.094019,0.1012,0.091866,0.086842,0.091866,0.10407,0.1012,0.086124,0.084689,0.085407,0.090431,0.089713,0.090431,0.10909,0.12129,0.12919,0.1299,0.11914,0.1299,0.13923,0.12919,0.11986,0.11627,0.11842,0.10191,0.082536,0.077512,0.07177,0.073923,0.074641,0.074641,0.076794,0.073206,0.074641,0.075359,0.075359,0.078947,0.083254,0.084689,0.086842,0.099761,0.099043,0.092584,0.085407,0.080383,0.096172,0.10407,0.10407,0.091866,0.081818,0.082536,0.080383,0.083254,0.085407,0.088278,0.089713,0.092584,0.091148,0.086842,0.082536,0.096172,0.10478,0.08756,0.075359,0.071053,0.076794,0.089713,0.10478,0.10909,0.10766,0.10263,0.096172,0.096172,0.088995,0.076794,0.081818,0.10909,0.10981,0.10048,0.10981,0.10909,0.10766,0.11196,0.11411,0.10981,0.12129,0.12344,0.11842,0.12632,0.13134,0.12416,0.10407,0.10335,0.10694,0.11196,0.12847,0.12344,0.11914,0.13708,0.14569,0.14713,0.14856,0.14282,0.13708,0.13565,0.13421,0.13278,0.14569,0.15574,0.1622,0.16866,0.16794,0.16435,0.16364,0.17297,0.1744,0.17225,0.17799,0.18589,0.19163,0.19665,0.19163,0.18373,0.18373,0.16866,0.15646,0.16435,0.16435,0.17297,0.20455,0.22105,0.2189,0.20957,0.21029,0.21603,0.21316,0.21244,0.21459,0.21962,0.22033,0.22249,0.22536,0.23254,0.23684,0.23038,0.2311,0.23828,0.23971,0.2555,0.27129,0.26914,0.26627,0.25263,0.24043,0.22536,0.21244,0.20455,0.20024,0.20096,0.17943,0.16148,0.15502,0.15144,0.16866,0.16005,0.14139,0.14713,0.15789,0.16292,0.15646,0.14928,0.13708,0.12632,0.12632,0.12344,0.09689,0.077512,0.080383,0.083971,0.1055,0.11268,0.10478,0.1134,0.11411,0.10478,0.094737,0.090431,0.095455,0.098325,0.093301,0.086842,0.078947,0.073206,0.076077,0.078947,0.08756,0.088995,0.077512,0.073923,0.075359,0.081818,0.086124,0.064593,0.058852,0.092584,0.11268,0.11268,0.1177,0.11842,0.11627,0.10981,0.097608,0.081818,0.075359,0.076794,0.069617,0.080383,0.094737,0.099043,0.11053,0.10909,0.096172,0.088995,0.091148,0.086842,0.074641,0.076077,0.078947,0.080383,0.080383,0.0811,0.086124,0.086842,0.085407,0.076794,0.066746,0.072488,0.0811,0.082536,0.07823,0.089713,0.10048,0.09689,0.096172,0.11053,0.12775,0.15359,0.19306,0.20167,0.21316,0.23038,0.22679,0.23038,0.24187,0.25694,0.27919,0.31507,0.35598,0.39043,0.41555,0.43995,0.45789,0.4866,0.52321,0.57416,0.64306,0.68469,0.73062,0.79306,0.86124,0.9201,0.96746,1.027,1.083,1.1361,1.1921,1.2531,1.3084,1.3364,1.3572,1.3787,1.3873,1.383,1.3622,1.3392,1.2797,1.1878,1.0995,1.0234,0.95526,0.8555,0.75861,0.70263,0.65383,0.57273,0.45431,0.35455,0.27919,0.23254,0.19163,0.14282,0.10837,0.076077,0.06244,0.055263,0.053828,0.057416,0.052392,0.057416,0.081818,0.11555,0.12632,0.12201,0.12344,0.13708,0.13206,0.11053,0.088278,0.078947,0.088278,0.10335,0.13206,0.13636,0.1378,0.15072,0.15646,0.15861,0.15574,0.16148,0.16507,0.16005,0.14498,0.12919,0.1012,0.077512,0.073206,0.068182,0.0811,0.088995,0.075359,0.082536,0.094019,0.085407,0.083254,0.091148,0.10048,0.10478,0.1177,0.12344,0.11627,0.11268,0.10837,0.12201,0.12775,0.12057,0.11627,0.11699,0.12847,0.12057,0.10694,0.091866,0.066746,0.053828,0.044498,0.047368,0.059569,0.061722,0.053828,0.050957,0.068182,0.080383,0.083971,0.094019,0.11268,0.13421,0.12847,0.1012,0.086842,0.090431,0.088278,0.068182,0.071053,0.088995,0.074641,0.051675,0.048804,0.059569,0.076794,0.090431,0.081818,0.07177,0.074641,0.083971,0.086842,0.083254,0.0811,0.078947,0.080383,0.079665,0.072488,0.066029,0.071053,0.075359,0.084689,0.098325,0.093301,0.088995,0.083254,0.075359,0.076077,0.07177,0.066029,0.067464,0.068182,0.060287,0.052392,0.046651,0.055263,0.069617,0.070335,0.069617,0.082536,0.084689,0.076794,0.076077,0.073206,0.07177,0.065311,0.064593,0.06244,0.059569,0.061005,0.072488,0.078947,0.055981,0.048804,0.070335,0.073923,0.048086,0.054545,0.077512,0.078947,0.077512,0.071053,0.065311,0.066029,0.073206,0.063158,0.063158,0.074641,0.0811,0.083971,0.079665,0.07177,0.063876,0.058852,0.061722,0.064593,0.048086,0.047368,0.061722,0.068182,0.067464,0.071053,0.073923,0.078947,0.082536,0.079665,0.078947,0.07177,0.072488,0.076794,0.066746,0.056699,0.064593,0.0689,0.072488,0.076794,0.072488,0.079665,0.090431,0.078947,0.064593,0.07177,0.077512,0.0811,0.083254,0.075359,0.071053,0.078947,0.084689,0.077512,0.076794,0.0811,0.085407,0.082536,0.073923,0.072488,0.074641,0.076077,0.086124,0.086124,0.080383,0.078947,0.077512,0.092584,0.095455,0.090431,0.09689,0.10478,0.10335,0.10263,0.10478,0.095455,0.093301,0.095455,0.086124,0.088278,0.093301,0.10263,0.11196,0.10335,0.098325,0.094737,0.10335,0.10407,0.1012,0.10981,0.11986,0.1299,0.11986,0.11555,0.11914,0.12273,0.12847,0.11699,0.099761,0.10191,0.11627,0.12129,0.12129,0.12129,0.11627,0.10407,0.097608,0.094737,0.095455,0.10048,0.11124,0.12129,0.1177,0.11411,0.11842,0.10478,0.10191,0.11914,0.11986,0.12344,0.12344,0.12919,0.14785,0.15072,0.14785,0.14569,0.14498,0.14498,0.14569,0.14426,0.13421,0.13062,0.13852,0.14139,0.14282,0.14641,0.14785,0.15,0.15646,0.15861,0.14641,0.13708,0.13565,0.14282,0.13565,0.13206,0.15072,0.15502,0.15144,0.14139,0.12632,0.12201,0.13349,0.14354,0.15,0.14282,0.12847,0.13349,0.13421,0.13493,0.13493,0.12847,0.14856,0.16148,0.15359,0.14282,0.12847,0.12919,0.13349,0.13708,0.14211,0.12632,0.11627,0.14713,0.16722,0.14426,0.13134,0.1299,0.13278,0.14139,0.13708,0.13062,0.11124,0.11268,0.13062,0.12201,0.11268,0.11699,0.11699,0.11196,0.11627,0.11411,0.1055,0.10981,0.11411,0.11053,0.11411,0.099761,0.084689,0.091148,0.093301,0.09689,0.10048,0.1134,0.1299,0.13493,0.1256,0.1177,0.11842,0.10694,0.094737,0.095455,0.099761,0.10191,0.10622,0.10407,0.10191,0.10694,0.10766,0.11268,0.10981,0.096172,0.098325,0.10837,0.10694,0.11053,0.10694,0.09689,0.088995,0.083254,0.088995,0.093301,0.099043,0.10263,0.11124,0.10478,0.086124,0.077512,0.078947,0.092584,0.09689,0.10335,0.10622,0.1012,0.090431,0.085407,0.10335,0.10766,0.099761,0.1012,0.1055,0.10407,0.095455,0.10191,0.10191,0.086842,0.096172,0.11842,0.11555,0.10263,0.081818,0.07823,0.1055,0.10909,0.099043,0.1012,0.097608,0.092584,0.090431,0.094019,0.098325,0.094737,0.11699,0.1378,0.13852,0.14211,0.14569,0.14928,0.14354,0.14641,0.14498,0.1299,0.12344,0.1299,0.14139,0.11699,0.099761,0.10694,0.1134,0.11268,0.095455,0.095455,0.094019,0.095455,0.099043,0.1012,0.10766,0.10263,0.10335,0.094019,0.08756,0.096172,0.10766,0.099761,0.082536,0.079665,0.084689,0.098325,0.12129,0.12775,0.12129,0.12201,0.12488,0.13349,0.12703,0.11842,0.12632,0.11842,0.1012,0.1055,0.11053,0.10407,0.10048,0.10981,0.10909,0.091148,0.092584,0.094737,0.10048,0.13636,0.15431,0.16435,0.17368,0.17225,0.16866,0.16938,0.17799,0.17153,0.17225,0.16866,0.14785,0.12703,0.1012,0.092584,0.095455,0.08756,0.091866,0.088995,0.077512,0.079665,0.076794,0.081818,0.10048,0.1299,0.15359,0.1622,0.16579,0.16077,0.13995,0.12416,0.11483,0.10263,0.10048,0.10407,0.086124,0.076077,0.083254,0.08756,0.10766,0.11842,0.11196,0.11483,0.11411,0.10335,0.099043,0.094737,0.092584,0.098325,0.10048,0.099761,0.10263,0.10909,0.1055,0.097608,0.099043,0.10263,0.10191,0.10263,0.098325,0.10191,0.10981,0.10407,0.10407,0.093301,0.097608,0.10478,0.094019,0.094019,0.083971,0.089713,0.10048,0.10048,0.11268,0.12488,0.12129,0.11914,0.12344,0.12273,0.11986,0.11555,0.11268,0.097608,0.084689,0.081818,0.076077,0.07823,0.086124,0.10407,0.10766,0.10622,0.10837,0.095455,0.088995,0.081818,0.07177,0.077512,0.091148,0.10837,0.11555,0.10909,0.1134,0.11699,0.11914,0.12057,0.12129,0.11483,0.10407,0.10335,0.096172,0.089713,0.099043,0.11124,0.098325,0.07177,0.064593,0.067464,0.065311,0.066746,0.065311,0.078947,0.093301,0.073923,0.05311,0.066746,0.098325,0.095455,0.08756,0.088278,0.085407,0.086842,0.086842,0.096172,0.098325,0.088278,0.078947,0.083254,0.084689,0.0811,0.086842,0.08756,0.083971,0.073206,0.079665,0.096172,0.092584,0.083254,0.080383,0.07823,0.079665,0.086842,0.08756,0.08756,0.094019,0.09689,0.092584,0.09689,0.089713,0.070335,0.061005,0.063158,0.065311,0.058134,0.067464,0.07823,0.082536,0.079665,0.072488,0.0811,0.074641,0.073206,0.080383,0.079665,0.088278,0.094737,0.094737,0.10335,0.095455,0.082536,0.098325,0.094737,0.085407,0.088278,0.075359,0.061722,0.065311,0.076794,0.075359,0.078947,0.090431,0.092584,0.094737,0.094019,0.090431,0.099761,0.1012,0.10335,0.098325,0.088995,0.10478,0.11411,0.11053,0.091866,0.088995,0.10191,0.095455,0.074641,0.058852,0.064593,0.066029,0.065311,0.082536,0.092584,0.090431,0.088995,0.084689,0.075359,0.071053,0.079665,0.076794,0.088278,0.091148,0.074641,0.086124,0.089713,0.091866,0.099043,0.093301,0.091866,0.091148,0.088995,0.089713,0.094737,0.096172,0.097608,0.10407,0.1055,0.1012,0.10478,0.10478,0.10335,0.10263,0.10407,0.10478,0.091148,0.08756,0.10191,0.11699,0.12057,0.12129,0.12488,0.11124,0.094737,0.096172,0.092584,0.086124,0.1012,0.11268,0.11555,0.12129,0.11627,0.11196,0.12632,0.14426,0.14641,0.14569,0.13636,0.11842,0.10909,0.10766,0.10407,0.10191,0.10407,0.099761,0.11053,0.1256,0.12847,0.13062,0.12919,0.12129,0.11627,0.11986,0.12775,0.13493,0.13995,0.14928,0.15861,0.1622,0.1622,0.16364,0.15861,0.15574,0.16077,0.16794,0.17368,0.17153,0.16722,0.15933,0.15072,0.15502,0.16292,0.1622,0.16148,0.16722,0.16866,0.17368,0.18158,0.17727,0.17943,0.17799,0.17871,0.18014,0.17081,0.17584,0.18732,0.19163,0.20167,0.20526,0.19234,0.18086,0.18086,0.18373,0.18947,0.20885,0.21603,0.21459,0.22177,0.21818,0.20526,0.19234,0.19091,0.19593,0.19952,0.18589,0.1701,0.17225,0.17153,0.16866,0.18086,0.18732,0.17368,0.16938,0.16507,0.1622,0.1622,0.1622,0.16148,0.15287,0.14211,0.13349,0.12919,0.10694,0.09689,0.1055,0.10909,0.11268,0.09689,0.081818,0.072488,0.073923,0.086842,0.096172,0.085407,0.071053,0.066746,0.055263,0.050957,0.058134,0.077512,0.090431,0.083971,0.075359,0.061722,0.049522,0.051675,0.051675,0.043062,0.044498,0.040909,0.031579,0.028708,0.040191,0.050239,0.048804,0.045933,0.041627,0.045215,0.050239,0.04378,0.030144,0.035167,0.041627,0.033014,0.048086,0.058134,0.058852,0.061722,0.043062,0.04378,0.055981,0.058134,0.053828,0.043062,0.045933,0.058134,0.06244,0.058852,0.048804,0.045933,0.063876,0.086842,0.099761,0.10837,0.11555,0.12775,0.13421,0.13349,0.13349,0.12488,0.12344,0.11842,0.1134,0.11986,0.12129,0.12344,0.12416,0.13995,0.15646,0.16579,0.19737,0.21818,0.23397,0.26268,0.28708,0.31077,0.33876,0.37033,0.40478,0.42632,0.46005,0.5067,0.54976,0.60574,0.66531,0.73636,0.81244,0.88565,0.94809,0.98684,1.0256,1.0715,1.1175,1.1756,1.2438,1.3091,1.36,1.3852,1.4024,1.4045,1.3679,1.3471,1.3385,1.2667,1.1706,1.0844,1.0033,0.93589,0.83828,0.73995,0.67823,0.61722,0.54833,0.43852,0.34163,0.27632,0.20598,0.16722,0.11483,0.065311,0.041627,0.027273,0.022967,0.022249,0.033014,0.039474,0.048086,0.059569,0.069617,0.086842,0.093301,0.090431,0.096172,0.10407,0.098325,0.081818,0.079665,0.061005,0.050239,0.073206,0.088995,0.091148,0.092584,0.088995,0.093301,0.099761,0.1055,0.1177,0.12273,0.11411,0.10263,0.099043,0.085407,0.076794,0.074641,0.073923,0.07177,0.052392,0.045215,0.060287,0.076794,0.0689,0.0689,0.077512,0.069617,0.063876,0.066746,0.076077,0.07177,0.06244,0.066746,0.063876,0.063876,0.061005,0.058852,0.056699,0.055981,0.070335,0.065311,0.064593,0.075359,0.088278,0.091148,0.085407,0.0811,0.063158,0.060287,0.058134,0.063876,0.07823,0.0811,0.095455,0.096172,0.094737,0.094019,0.081818,0.079665,0.07823,0.083971,0.089713,0.086124,0.078947,0.076077,0.082536,0.091148,0.1055,0.1055,0.099761,0.092584,0.086842,0.073923,0.063876,0.076794,0.07823,0.073923,0.067464,0.067464,0.076077,0.080383,0.088278,0.085407,0.081818,0.085407,0.084689,0.091866,0.091866,0.084689,0.076077,0.068182,0.063876,0.061722,0.059569,0.049522,0.051675,0.063876,0.063876,0.054545,0.058134,0.0811,0.084689,0.07177,0.067464,0.072488,0.075359,0.073923,0.066746,0.058134,0.074641,0.078947,0.0689,0.063876,0.068182,0.081818,0.078947,0.075359,0.073923,0.069617,0.064593,0.068182,0.083254,0.093301,0.08756,0.080383,0.050957,0.040191,0.083254,0.095455,0.090431,0.084689,0.0811,0.086842,0.084689,0.086842,0.082536,0.081818,0.07823,0.071053,0.0689,0.078947,0.092584,0.084689,0.086124,0.092584,0.085407,0.080383,0.077512,0.0811,0.083971,0.08756,0.091148,0.08756,0.076077,0.073923,0.074641,0.077512,0.07823,0.071053,0.069617,0.066029,0.070335,0.068182,0.061005,0.067464,0.07177,0.063158,0.050957,0.044498,0.061005,0.076794,0.07823,0.08756,0.081818,0.074641,0.078947,0.084689,0.083254,0.071053,0.061005,0.068182,0.081818,0.079665,0.073923,0.07823,0.08756,0.091148,0.091866,0.088995,0.094737,0.10478,0.1055,0.10478,0.10478,0.10191,0.10048,0.10048,0.10478,0.11555,0.11555,0.1012,0.088278,0.079665,0.072488,0.073923,0.084689,0.093301,0.088278,0.083971,0.088278,0.096172,0.10263,0.10694,0.11053,0.10478,0.11124,0.10837,0.098325,0.10766,0.10909,0.12416,0.14498,0.14785,0.15287,0.15359,0.15215,0.15287,0.15718,0.15,0.1622,0.1744,0.15502,0.14785,0.11914,0.089713,0.07177,0.064593,0.075359,0.089713,0.10766,0.1012,0.083254,0.083971,0.10335,0.1177,0.14211,0.16651,0.16292,0.15431,0.15287,0.15072,0.15718,0.15144,0.14785,0.15144,0.14067,0.1378,0.12201,0.11268,0.1177,0.13636,0.14569,0.12632,0.11483,0.10407,0.088278,0.085407,0.088278,0.1055,0.1256,0.12775,0.11986,0.10909,0.10837,0.11268,0.10622,0.098325,0.097608,0.097608,0.11268,0.12919,0.12201,0.12919,0.13565,0.12847,0.1256,0.12775,0.13134,0.12847,0.12488,0.12416,0.12703,0.12057,0.11268,0.11124,0.10335,0.10263,0.10622,0.10478,0.11483,0.11842,0.10335,0.10263,0.10335,0.10407,0.1177,0.11842,0.10622,0.094737,0.083971,0.094019,0.10048,0.082536,0.092584,0.11196,0.11483,0.099761,0.091148,0.10191,0.10335,0.1134,0.10766,0.091866,0.08756,0.081818,0.08756,0.08756,0.074641,0.071053,0.070335,0.073923,0.0811,0.077512,0.074641,0.083254,0.090431,0.10048,0.095455,0.071053,0.066029,0.070335,0.060287,0.055263,0.069617,0.076794,0.079665,0.086842,0.089713,0.092584,0.10263,0.10335,0.091148,0.086842,0.089713,0.091148,0.084689,0.081818,0.069617,0.064593,0.0811,0.083971,0.083254,0.097608,0.10263,0.094737,0.094737,0.099761,0.099043,0.099761,0.092584,0.09689,0.10909,0.1012,0.10191,0.10407,0.11196,0.12344,0.12273,0.12632,0.11196,0.093301,0.092584,0.10263,0.11268,0.11411,0.11124,0.11053,0.10766,0.095455,0.089713,0.10407,0.11124,0.10407,0.11124,0.1134,0.10766,0.1012,0.082536,0.072488,0.072488,0.076077,0.077512,0.07823,0.083971,0.088278,0.096172,0.10981,0.11411,0.10694,0.10048,0.11124,0.11196,0.10478,0.1055,0.1012,0.10191,0.099043,0.10407,0.1055,0.10191,0.10478,0.097608,0.10622,0.12129,0.12703,0.12057,0.11411,0.10837,0.10478,0.10407,0.11411,0.1256,0.12129,0.12273,0.1177,0.11196,0.10766,0.10191,0.10837,0.11411,0.12847,0.12919,0.12129,0.12057,0.12201,0.12703,0.1134,0.11483,0.12775,0.13278,0.12273,0.1134,0.12488,0.12919,0.12416,0.12201,0.12273,0.11196,0.10335,0.10981,0.11411,0.10622,0.093301,0.086124,0.086124,0.091866,0.094737,0.089713,0.10048,0.10837,0.088995,0.094737,0.11196,0.10478,0.094019,0.083254,0.092584,0.11053,0.12488,0.12919,0.10981,0.099761,0.10694,0.10694,0.10694,0.10766,0.10981,0.11555,0.11268,0.11268,0.11483,0.10837,0.11483,0.12632,0.11483,0.10263,0.096172,0.093301,0.092584,0.09689,0.1055,0.10263,0.094019,0.10191,0.11483,0.11483,0.10263,0.098325,0.10622,0.10622,0.11268,0.10048,0.086124,0.086124,0.086842,0.097608,0.094737,0.089713,0.090431,0.10837,0.1378,0.13923,0.13421,0.14426,0.15646,0.15789,0.15072,0.14569,0.14067,0.13565,0.11627,0.08756,0.072488,0.066746,0.061722,0.061722,0.065311,0.061005,0.054545,0.053828,0.055263,0.066746,0.074641,0.086842,0.10263,0.10981,0.11053,0.11411,0.11268,0.097608,0.094737,0.10191,0.10048,0.076077,0.058134,0.050957,0.058852,0.072488,0.0811,0.08756,0.090431,0.089713,0.068182,0.079665,0.083254,0.068182,0.057416,0.031579,0.046651,0.076794,0.082536,0.073206,0.06244,0.073923,0.081818,0.07823,0.076794,0.082536,0.09689,0.10407,0.10048,0.1055,0.11842,0.11483,0.099761,0.086124,0.091866,0.091148,0.076794,0.089713,0.10981,0.11124,0.10407,0.10766,0.11627,0.11268,0.11124,0.11483,0.10766,0.10622,0.10335,0.097608,0.096172,0.088995,0.096172,0.095455,0.079665,0.068182,0.076077,0.079665,0.07177,0.073206,0.082536,0.084689,0.063876,0.083254,0.10837,0.11627,0.13134,0.11699,0.10478,0.10478,0.095455,0.078947,0.072488,0.072488,0.066746,0.08756,0.12201,0.13062,0.12488,0.12344,0.12847,0.12847,0.12488,0.12416,0.11914,0.12847,0.11986,0.10694,0.11053,0.099043,0.092584,0.099761,0.11411,0.11842,0.11699,0.11842,0.10694,0.088995,0.083254,0.086124,0.077512,0.085407,0.10263,0.098325,0.092584,0.084689,0.075359,0.079665,0.091148,0.092584,0.088278,0.088995,0.092584,0.094019,0.091148,0.093301,0.092584,0.11268,0.13349,0.1256,0.12273,0.1177,0.11986,0.12632,0.12488,0.12129,0.11483,0.10981,0.10407,0.11124,0.12201,0.1256,0.11627,0.099761,0.1177,0.13995,0.12847,0.1299,0.1378,0.13852,0.15144,0.14785,0.12488,0.11053,0.11842,0.13206,0.15359,0.15933,0.14641,0.16507,0.16579,0.16005,0.16364,0.15574,0.15861,0.16148,0.16866,0.18014,0.18301,0.19019,0.1988,0.19378,0.19593,0.19378,0.19163,0.19737,0.19378,0.19665,0.18445,0.18158,0.18301,0.18373,0.1988,0.20311,0.20957,0.21316,0.2189,0.21603,0.21818,0.21172,0.20526,0.21029,0.20167,0.1988,0.1945,0.1945,0.20455,0.2189,0.22679,0.22967,0.23254,0.23325,0.21818,0.20598,0.20813,0.20383,0.21388,0.21962,0.20311,0.18517,0.18014,0.17153,0.16292,0.16938,0.16435,0.16579,0.17297,0.16579,0.16364,0.16005,0.16148,0.15287,0.13062,0.091866,0.077512,0.098325,0.10622,0.094737,0.072488,0.079665,0.08756,0.089713,0.078947,0.07177,0.08756,0.086842,0.086124,0.074641,0.055263,0.043062,0.064593,0.091148,0.091866,0.0811,0.066029,0.065311,0.050239,0.035167,0.048804,0.06244,0.068182,0.076794,0.0811,0.090431,0.088995,0.076077,0.073923,0.068182,0.059569,0.051675,0.0689,0.093301,0.099043,0.078947,0.056699,0.067464,0.058852,0.050957,0.073206,0.07823,0.0689,0.063876,0.064593,0.077512,0.080383,0.065311,0.0689,0.076077,0.076077,0.080383,0.073923,0.076794,0.0811,0.082536,0.10622,0.11411,0.09689,0.097608,0.11411,0.1134,0.09689,0.10478,0.1177,0.1177,0.12129,0.12632,0.14139,0.15646,0.16722,0.17799,0.20957,0.23469,0.2311,0.23756,0.23541,0.23469,0.26268,0.30287,0.31579,0.32871,0.37249,0.4134,0.43852,0.4701,0.53038,0.59211,0.66172,0.73062,0.76866,0.82536,0.89785,0.96388,1.0098,1.0213,1.0428,1.0794,1.1218,1.1634,1.2115,1.2574,1.2854,1.3062,1.3148,1.3048,1.2804,1.251,1.2014,1.106,0.9933,0.93876,0.90718,0.82321,0.7299,0.66459,0.59928,0.52249,0.42488,0.33301,0.26053,0.17727,0.10335,0.048086,0.010766,0,0.0043062,0.033014,0.060287,0.045933,0.032297,0.056699,0.084689,0.090431,0.097608,0.10335,0.11268,0.11483,0.11483,0.11196,0.097608,0.095455,0.091148,0.088278,0.091148,0.10048,0.10191,0.10766,0.10622,0.090431,0.093301,0.080383,0.083971,0.11483,0.11483,0.098325,0.082536,0.083971,0.091866,0.088278,0.086842,0.081818,0.073923,0.080383,0.10263,0.10909,0.091148,0.081818,0.089713,0.089713,0.09689,0.09689,0.078947,0.073923,0.076077,0.08756,0.091866,0.084689,0.088995,0.1012,0.11627,0.10766,0.10263,0.086124,0.0811,0.094019,0.086124,0.10048,0.11483,0.11914,0.12632,0.12201,0.10048,0.090431,0.097608,0.088995,0.080383,0.098325,0.11699,0.12201,0.10837,0.095455,0.090431,0.097608,0.10766,0.1012,0.1055,0.097608,0.10048,0.12129,0.11196,0.11124,0.11627,0.1177,0.1134,0.1012,0.10263,0.099043,0.096172,0.091866,0.083971,0.07823,0.083971,0.083971,0.073206,0.088278,0.10766,0.10837,0.10622,0.11196,0.10335,0.094019,0.10981,0.12344,0.11627,0.11699,0.12273,0.10981,0.096172,0.09689,0.10909,0.11196,0.1177,0.12344,0.12703,0.12201,0.1055,0.11124,0.10191,0.1012,0.11555,0.11555,0.097608,0.0811,0.088278,0.07823,0.089713,0.11699,0.1177,0.10694,0.10837,0.1177,0.12775,0.14067,0.13852,0.14426,0.13995,0.12488,0.13206,0.13206,0.12416,0.12775,0.12416,0.11411,0.10766,0.10622,0.1055,0.11914,0.12703,0.10191,0.097608,0.10766,0.11196,0.11986,0.12632,0.13349,0.11124,0.094737,0.10909,0.11914,0.1134,0.10478,0.1177,0.12344,0.12344,0.12057,0.12129,0.1378,0.14067,0.13995,0.13923,0.13995,0.14211,0.13349,0.13636,0.15502,0.16507,0.15646,0.1299,0.12057,0.11268,0.098325,0.11483,0.13708,0.14139,0.12847,0.12775,0.12775,0.13062,0.13206,0.13349,0.14354,0.13565,0.1378,0.14928,0.16866,0.16938,0.14067,0.12919,0.16077,0.1744,0.15215,0.15287,0.14641,0.14641,0.15431,0.17727,0.19665,0.1988,0.20311,0.21818,0.24904,0.23254,0.21746,0.22105,0.20885,0.20885,0.20311,0.19522,0.18014,0.15646,0.14498,0.13565,0.14067,0.13852,0.14713,0.16292,0.16292,0.16077,0.12632,0.12057,0.16866,0.1823,0.16866,0.16794,0.16794,0.16866,0.17153,0.18947,0.18517,0.16722,0.18517,0.1988,0.21459,0.20813,0.1945,0.1866,0.18086,0.20024,0.21531,0.21603,0.20742,0.20383,0.20096,0.21603,0.21962,0.20167,0.19952,0.19809,0.19665,0.21962,0.23828,0.22679,0.22033,0.21746,0.21459,0.2189,0.20239,0.18804,0.19665,0.1945,0.20455,0.21603,0.21029,0.20813,0.19593,0.1744,0.1744,0.18947,0.18517,0.16005,0.15861,0.19019,0.19522,0.1988,0.1945,0.18445,0.20096,0.21388,0.2067,0.18445,0.17799,0.18589,0.19306,0.1866,0.18804,0.18445,0.17225,0.17871,0.17727,0.18445,0.18373,0.16364,0.15789,0.16435,0.18517,0.1823,0.16364,0.16077,0.16866,0.18086,0.1701,0.17512,0.18517,0.16364,0.15144,0.13565,0.13636,0.15502,0.15215,0.16077,0.16292,0.14785,0.14139,0.14426,0.15861,0.15574,0.14928,0.15933,0.16579,0.15431,0.14569,0.15287,0.15789,0.15933,0.14282,0.12416,0.13493,0.15215,0.14856,0.13565,0.1299,0.13278,0.12416,0.1299,0.13278,0.1256,0.1299,0.13134,0.13134,0.12273,0.13636,0.15431,0.15574,0.14426,0.13995,0.12919,0.12775,0.15215,0.12344,0.11842,0.15144,0.1299,0.12201,0.14856,0.14785,0.14641,0.14641,0.14354,0.14856,0.14641,0.14498,0.14928,0.14067,0.13493,0.14426,0.14785,0.14282,0.1378,0.1256,0.13852,0.15933,0.15789,0.15,0.14282,0.14856,0.14067,0.14139,0.15,0.15431,0.15215,0.14856,0.15431,0.1622,0.17584,0.17153,0.1744,0.16866,0.15933,0.17153,0.1622,0.15144,0.16579,0.17297,0.1622,0.17081,0.18014,0.17943,0.18445,0.16722,0.1622,0.16866,0.15431,0.13995,0.13636,0.13852,0.13493,0.14856,0.15718,0.15646,0.15574,0.16507,0.18158,0.18373,0.20096,0.21675,0.22608,0.23254,0.2311,0.2189,0.20813,0.19378,0.17656,0.19234,0.17368,0.14713,0.15789,0.17153,0.14641,0.11914,0.15287,0.15718,0.14569,0.1622,0.16938,0.16866,0.17297,0.17799,0.18517,0.17943,0.17943,0.19665,0.18589,0.17943,0.18014,0.16364,0.13421,0.12201,0.15646,0.18373,0.1988,0.20598,0.20455,0.20311,0.19737,0.18732,0.18589,0.17943,0.15144,0.1299,0.12057,0.13636,0.15861,0.16866,0.16364,0.15574,0.16292,0.17656,0.17727,0.17225,0.17656,0.18804,0.2067,0.18158,0.15431,0.17297,0.15359,0.13923,0.14928,0.14856,0.14641,0.1299,0.14856,0.15718,0.16507,0.1701,0.1378,0.14713,0.16794,0.18876,0.19163,0.16938,0.16077,0.15431,0.16005,0.15287,0.15646,0.16292,0.14713,0.15359,0.14713,0.14067,0.14426,0.1378,0.14139,0.13062,0.14354,0.15933,0.14426,0.14928,0.15861,0.15502,0.15359,0.16866,0.16651,0.14569,0.13636,0.13278,0.12273,0.11986,0.14139,0.1299,0.11842,0.13995,0.14856,0.13565,0.12488,0.1256,0.13062,0.14139,0.13062,0.12129,0.1177,0.12273,0.13493,0.13349,0.13565,0.12847,0.1299,0.13636,0.12201,0.13421,0.14856,0.12919,0.12703,0.11555,0.1055,0.12344,0.13062,0.12129,0.12416,0.14785,0.15215,0.14067,0.14426,0.13852,0.12488,0.15072,0.15861,0.14211,0.14785,0.13923,0.13995,0.14139,0.13708,0.14498,0.15144,0.15502,0.12775,0.1134,0.12488,0.11483,0.12488,0.15144,0.12919,0.10335,0.1134,0.13493,0.13923,0.15502,0.1622,0.14139,0.13852,0.11986,0.12632,0.13636,0.13349,0.14641,0.1134,0.10335,0.15072,0.17081,0.15574,0.15215,0.15431,0.12416,0.11699,0.12632,0.11842,0.1134,0.10766,0.11268,0.11627,0.1055,0.12775,0.14282,0.12919,0.12416,0.11483,0.11986,0.13134,0.13852,0.14139,0.13278,0.11483,0.1134,0.12775,0.13134,0.12201,0.12416,0.14067,0.13565,0.13062,0.14067,0.13565,0.11986,0.11411,0.12273,0.11699,0.10837,0.12129,0.12919,0.13206,0.13565,0.15,0.15861,0.13852,0.1378,0.15,0.14354,0.14713,0.13349,0.11196,0.10837,0.12344,0.13636,0.13421,0.14282,0.14713,0.1256,0.1134,0.12344,0.13421,0.14785,0.13278,0.12273,0.14139,0.14785,0.15,0.16507,0.16435,0.14139,0.14785,0.16435,0.15287,0.15431,0.16292,0.15359,0.15933,0.17153,0.16579,0.15933,0.14426,0.13493,0.14498,0.14569,0.15431,0.15287,0.13995,0.15718,0.17081,0.16579,0.1622,0.17656,0.18301,0.16794,0.15646,0.15287,0.15144,0.15431,0.16364,0.15861,0.14641,0.14569,0.16077,0.16579,0.16938,0.1701,0.15861,0.1744,0.17225,0.17225,0.17656,0.16364,0.1744,0.18876,0.21316,0.21316,0.20311,0.19593,0.19306,0.21603,0.2189,0.24258,0.23756,0.20096,0.20526,0.21603,0.22321,0.20311,0.19306,0.21531,0.21316,0.21459,0.22105,0.20598,0.20813,0.21172,0.20598,0.20024,0.19665,0.20813,0.21603,0.22033,0.22321,0.21675,0.20526,0.21316,0.22249,0.21746,0.20813,0.21459,0.22823,0.22679,0.22033,0.18876,0.18517,0.21603,0.20455,0.18804,0.17943,0.17799,0.19665,0.22249,0.22177,0.20455,0.18373,0.16364,0.16005,0.14211,0.13995,0.14713,0.15072,0.14498,0.13421,0.12632,0.1134,0.11196,0.1134,0.11842,0.11555,0.11842,0.11555,0.10478,0.097608,0.075359,0.083971,0.084689,0.08756,0.10622,0.10048,0.099043,0.10263,0.10407,0.094019,0.11268,0.14641,0.15861,0.16292,0.15215,0.15933,0.15789,0.14498,0.15215,0.14354,0.12847,0.13421,0.14928,0.13493,0.11483,0.11268,0.1055,0.097608,0.093301,0.088278,0.081818,0.067464,0.063158,0.048804,0.042344,0.090431,0.10263,0.091148,0.095455,0.097608,0.11124,0.11627,0.12344,0.13349,0.14498,0.15,0.13206,0.12273,0.12703,0.15287,0.17584,0.15861,0.13206,0.12057,0.12703,0.13852,0.15144,0.16794,0.20096,0.21962,0.22321,0.24115,0.23828,0.22321,0.2311,0.26124,0.27919,0.29785,0.33373,0.37751,0.41268,0.43134,0.45287,0.46507,0.48732,0.53325,0.57488,0.61364,0.67177,0.7378,0.79091,0.85766,0.90144,0.92512,0.97895,1.0306,1.0636,1.0938,1.1533,1.2129,1.2294,1.2481,1.2624,1.2445,1.2187,1.2022,1.1713,1.1067,1.0227,0.93445,0.86124,0.79809,0.7299,0.65526,0.59354,0.53397,0.45215,0.36603,0.30215,0.2512,0.20024,0.1701,0.13421,0.084689,0.073206,0.085407,0.079665,0.080383,0.091866,0.09689,0.096172,0.10694,0.13708,0.15215,0.14641,0.13708,0.11842,0.10335,0.11483,0.11986,0.10263,0.099043,0.1177,0.12129,0.10909,0.10263,0.094737,0.092584,0.10407,0.10622,0.10048,0.10478,0.10694,0.10766,0.098325,0.099761,0.12201,0.13349,0.1256,0.12057,0.11699,0.12416,0.13565,0.12919,0.13278,0.13134,0.12416,0.12488,0.13278,0.13493,0.12632,0.13923,0.14067,0.1177,0.11627,0.12703,0.1299,0.13923,0.14426,0.12919,0.12273,0.12416,0.11411,0.13565,0.14139,0.1299,0.14713,0.14713,0.12847,0.12488,0.12919,0.11555,0.11268,0.12344,0.13134,0.12703,0.1378,0.15144,0.13852,0.14067,0.13923,0.12775,0.14426,0.14426,0.14426,0.15072,0.13062,0.13565,0.14282,0.14067,0.13206,0.13206,0.13995,0.13923,0.14282,0.14641,0.14498,0.14211,0.15072,0.13995,0.1177,0.10694,0.11699,0.13062,0.12703,0.11196,0.10981,0.12775,0.1256,0.13493,0.15,0.1378,0.12201,0.099043,0.11627,0.13349,0.11914,0.11986,0.12775,0.15072,0.15359,0.13708,0.13995,0.15789,0.14139,0.12057,0.12632,0.12775,0.14067,0.13493,0.11914,0.12057,0.11986,0.12632,0.12632,0.12201,0.1256,0.12847,0.13421,0.13278,0.1177,0.11555,0.11627,0.1256,0.13421,0.12775,0.12632,0.12775,0.13421,0.12632,0.12775,0.13493,0.12416,0.1256,0.13278,0.13349,0.13206,0.13206,0.1256,0.12488,0.11555,0.10694,0.10766,0.11196,0.12488,0.12632,0.12703,0.13636,0.15359,0.15718,0.15287,0.14641,0.12129,0.11842,0.13349,0.12129,0.11555,0.12057,0.12416,0.14785,0.16077,0.14641,0.12919,0.13278,0.14641,0.14354,0.13134,0.1378,0.15287,0.15646,0.15861,0.15718,0.14785,0.15072,0.16077,0.15718,0.16364,0.16005,0.14139,0.14641,0.14354,0.15287,0.16507,0.15646,0.15502,0.15287,0.16364,0.16148,0.16579,0.18014,0.1744,0.17512,0.16794,0.16435,0.16722,0.16507,0.16364,0.15789,0.16364,0.16722,0.15789,0.16722,0.1823,0.17943,0.15933,0.16579,0.19593,0.20455,0.1945,0.19234,0.19306,0.18301,0.1945,0.20742,0.20024,0.18947,0.18014,0.1744,0.18373,0.19522,0.19234,0.18445,0.17727,0.18589,0.1988,0.20024,0.19737,0.19306,0.19019,0.19665,0.19737,0.18589,0.19163,0.17297,0.16507,0.20455,0.20957,0.19163,0.18589,0.1988,0.21172,0.21603,0.22392,0.22608,0.21316,0.21172,0.23182,0.24474,0.24761,0.23684,0.23397,0.23325,0.22249,0.23541,0.23971,0.22321,0.21388,0.20598,0.22464,0.24904,0.26627,0.2799,0.2677,0.25981,0.26124,0.25263,0.2433,0.24545,0.23397,0.21603,0.18876,0.16364,0.17727,0.19665,0.20813,0.20383,0.20885,0.22536,0.22751,0.22177,0.21603,0.21459,0.21459,0.21388,0.21675,0.22608,0.22895,0.24402,0.24617,0.24689,0.25622,0.25407,0.25478,0.23684,0.19522,0.16435,0.16077,0.15718,0.15646,0.15646,0.15215,0.15646,0.16148,0.17512,0.19019,0.19019,0.19665,0.19522,0.19737,0.19522,0.18301,0.18517,0.17799,0.1701,0.17943,0.17153,0.14785,0.14785,0.15359,0.17727,0.20024,0.18445,0.17225,0.17943,0.17799,0.16507,0.16651,0.17584,0.1744,0.16938,0.16364,0.16507,0.16435,0.17584,0.18804,0.18014,0.1945,0.19809,0.18445,0.19163,0.1823,0.16292,0.14785,0.15287,0.15718,0.15574,0.16866,0.16435,0.15215,0.14641,0.1622,0.15502,0.12847,0.12057,0.11411,0.11627,0.1378,0.14211,0.12416,0.13636,0.16005,0.16938,0.1701,0.16148,0.15215,0.15287,0.14498,0.14139,0.15,0.15287,0.15574,0.16077,0.16148,0.16292,0.16938,0.17225,0.15574,0.14067,0.14785,0.13995,0.13995,0.16077,0.17799,0.16148,0.13134,0.14569,0.15359,0.14641,0.15,0.14139,0.14211,0.14569,0.12273,0.1256,0.16722,0.17584,0.15431,0.15,0.15215,0.15287,0.16292,0.16866,0.16292,0.15646,0.16507,0.16435,0.15431,0.16364,0.16722,0.17153,0.17799,0.17799,0.17584,0.17512,0.17727,0.17943,0.18014,0.17225,0.16292,0.15359,0.15574,0.16005,0.15574,0.15359,0.15502,0.17081,0.18086,0.18301,0.17943,0.17512,0.17297,0.15933,0.17225,0.1744,0.15502,0.16794,0.17871,0.17297,0.1823,0.19522,0.18732,0.18373,0.18804,0.18445,0.17871,0.18804,0.1866,0.16938,0.17799,0.19019,0.19163,0.19809,0.19306,0.1988,0.20239,0.19593,0.20024,0.19091,0.19091,0.17871,0.17225,0.19378,0.19306,0.18301,0.1701,0.17225,0.17368,0.16579,0.16866,0.19019,0.21029,0.19665,0.17512,0.16866,0.16938,0.1701,0.18373,0.19737,0.1988,0.19234,0.19019,0.19234,0.20383,0.20526,0.20167,0.20167,0.18876,0.18086,0.17081,0.16794,0.17368,0.16794,0.17368,0.18445,0.1744,0.16579,0.1622,0.16292,0.16148,0.16364,0.1701,0.17225,0.16938,0.16722,0.18445,0.19378,0.18014,0.1701,0.16651,0.15933,0.14498,0.15,0.16579,0.17153,0.17943,0.18876,0.18947,0.18589,0.19306,0.19019,0.17081,0.16866,0.16938,0.16292,0.16077,0.15431,0.15933,0.16292,0.16077,0.16651,0.16148,0.16148,0.17153,0.15287,0.13278,0.14498,0.15431,0.1622,0.15933,0.15359,0.14928,0.15144,0.1622,0.15431,0.14785,0.14569,0.14211,0.13493,0.14067,0.14354,0.13852,0.15144,0.15215,0.15359,0.16005,0.14641,0.13493,0.16292,0.18373,0.17727,0.19306,0.20598,0.20096,0.18804,0.17656,0.17799,0.1701,0.16005,0.16866,0.17512,0.1622,0.14928,0.15144,0.15144,0.15072,0.14785,0.15215,0.15574,0.14282,0.15,0.16005,0.1622,0.16435,0.15574,0.14928,0.15574,0.16938,0.16938,0.15287,0.15,0.1622,0.1622,0.16938,0.17512,0.16364,0.16364,0.16507,0.16794,0.16077,0.15574,0.15,0.13852,0.14211,0.13852,0.13923,0.14856,0.15287,0.15,0.14354,0.14641,0.15574,0.15789,0.16292,0.16507,0.16077,0.16148,0.17081,0.1866,0.1823,0.18373,0.17727,0.16651,0.1823,0.18014,0.1701,0.15861,0.15646,0.14928,0.14139,0.14067,0.12488,0.10478,0.10191,0.12201,0.13565,0.13206,0.12488,0.12273,0.12344,0.11411,0.10981,0.11411,0.11483,0.14067,0.15646,0.15359,0.14641,0.13421,0.11411,0.11268,0.13852,0.13708,0.13493,0.1378,0.13636,0.14785,0.15287,0.15574,0.15646,0.15861,0.14785,0.13923,0.15287,0.16077,0.16435,0.15789,0.16292,0.1701,0.16364,0.17081,0.16866,0.16077,0.16938,0.18014,0.17368,0.16722,0.16651,0.1744,0.18804,0.18804,0.17297,0.16866,0.18517,0.19091,0.18589,0.18158,0.1866,0.18947,0.19234,0.19665,0.18804,0.19737,0.21818,0.211,0.20024,0.20742,0.22321,0.23756,0.22823,0.22464,0.23038,0.23397,0.22321,0.20957,0.21675,0.22536,0.22321,0.2067,0.21172,0.22679,0.22321,0.21962,0.21029,0.21172,0.23469,0.23971,0.23469,0.22751,0.22249,0.22177,0.21818,0.22967,0.23684,0.239,0.24043,0.239,0.23541,0.21962,0.2189,0.23828,0.23971,0.24187,0.23828,0.2189,0.21459,0.21818,0.22249,0.22536,0.21172,0.20096,0.1988,0.18517,0.1866,0.18445,0.1701,0.16077,0.15789,0.16794,0.16938,0.15215,0.14211,0.1378,0.1378,0.13565,0.12057,0.12344,0.11699,0.11555,0.1256,0.12775,0.13923,0.13134,0.12273,0.12273,0.12416,0.1299,0.12416,0.11914,0.12057,0.11842,0.12344,0.12057,0.11411,0.11986,0.12344,0.12201,0.1134,0.10909,0.12488,0.1378,0.14354,0.13278,0.11268,0.1256,0.15718,0.17656,0.15359,0.12416,0.11986,0.12273,0.11914,0.10981,0.10981,0.10191,0.098325,0.11053,0.12416,0.12919,0.12273,0.11699,0.11268,0.10191,0.078947,0.079665,0.10622,0.12057,0.11986,0.12057,0.12201,0.11914,0.12129,0.1299,0.14139,0.14928,0.13852,0.13493,0.14354,0.14641,0.15072,0.1622,0.17081,0.17799,0.19378,0.19593,0.19306,0.20598,0.23182,0.2555,0.26053,0.2634,0.27344,0.29354,0.30215,0.31292,0.34522,0.36746,0.39904,0.44067,0.46005,0.45789,0.47368,0.52177,0.57703,0.62153,0.66459,0.73134,0.79091,0.839,0.88349,0.92225,0.96962,1.0292,1.0809,1.1232,1.1699,1.2057,1.2215,1.2402,1.2725,1.3019,1.2976,1.2596,1.2452,1.2093,1.1218,1.0191,0.93373,0.88278,0.81531,0.72416,0.66029,0.62297,0.56699,0.46364,0.37967,0.32225,0.25837,0.22464,0.1823,0.14641,0.1177,0.09689,0.11053,0.1134,0.10478,0.10837,0.11986,0.12273,0.12632,0.13421,0.14139,0.14569,0.13995,0.13134,0.13206,0.11627,0.1134,0.14426,0.13852,0.12703,0.14211,0.14785,0.14282,0.13493,0.12344,0.12488,0.13708,0.14426,0.14856,0.15789,0.17081,0.16938,0.17225,0.18158,0.18804,0.1945,0.19665,0.20742,0.20957,0.19163,0.17584,0.16579,0.13923,0.12703,0.14426,0.14354,0.13134,0.12703,0.11483,0.10191,0.099761,0.0811,0.078947,0.11699,0.1378,0.13708,0.12775,0.12775,0.14498,0.13349,0.13565,0.16722,0.17943,0.17871,0.1823,0.18158,0.15574,0.13278,0.14282,0.17081,0.18445,0.16794,0.14785,0.13421,0.11914,0.12273,0.14354,0.14641,0.13493,0.12201,0.1055,0.10766,0.1256,0.14641,0.16148,0.15574,0.15646,0.16651,0.15718,0.14785,0.14569,0.14211,0.14856,0.15933,0.15287,0.15144,0.16077,0.16507,0.15144,0.13923,0.14426,0.14498,0.15718,0.16077,0.15144,0.15431,0.1622,0.16579,0.16364,0.15718,0.14785,0.14569,0.14785,0.14713,0.14426,0.14282,0.14354,0.14713,0.15646,0.16507,0.15861,0.14856,0.14426,0.14282,0.15933,0.16794,0.1622,0.14928,0.14354,0.15359,0.14713,0.13995,0.14641,0.15431,0.15646,0.15574,0.16148,0.16579,0.16292,0.16794,0.17512,0.17081,0.16722,0.17153,0.17512,0.17368,0.16579,0.15933,0.1622,0.15431,0.14856,0.16005,0.16938,0.17081,0.1744,0.18086,0.16866,0.16435,0.17297,0.16794,0.15718,0.15072,0.14713,0.15502,0.1622,0.16651,0.17153,0.1744,0.17727,0.17584,0.17225,0.18086,0.19952,0.19378,0.18876,0.18804,0.16579,0.16148,0.16866,0.18445,0.19665,0.18373,0.17943,0.18014,0.18589,0.20311,0.2067,0.18804,0.16938,0.16005,0.14498,0.14856,0.15789,0.15718,0.16579,0.17225,0.17153,0.17512,0.18086,0.18014,0.18301,0.19522,0.19593,0.18373,0.1744,0.17799,0.17584,0.16722,0.17225,0.18373,0.19163,0.1945,0.19665,0.20024,0.2067,0.19306,0.17871,0.19019,0.19163,0.20024,0.21029,0.20598,0.21244,0.22536,0.22536,0.21172,0.20742,0.19665,0.18086,0.18804,0.19665,0.19234,0.19091,0.20239,0.21388,0.21603,0.21818,0.22177,0.23182,0.22895,0.2311,0.23684,0.22536,0.2189,0.21531,0.21746,0.21531,0.20311,0.20598,0.2189,0.22177,0.22895,0.23469,0.22823,0.21962,0.22249,0.22751,0.22321,0.22105,0.2311,0.2311,0.22823,0.23612,0.23756,0.24258,0.24258,0.24545,0.23971,0.21388,0.19665,0.19952,0.22751,0.24258,0.23541,0.23612,0.23325,0.22536,0.22392,0.22751,0.22967,0.23038,0.23541,0.25335,0.25837,0.2512,0.25622,0.26124,0.26483,0.26268,0.2512,0.24258,0.25837,0.2677,0.24474,0.21172,0.1945,0.19234,0.1823,0.18086,0.1945,0.19378,0.17799,0.15431,0.14785,0.18158,0.21388,0.22249,0.22177,0.22321,0.211,0.20598,0.20957,0.19737,0.19091,0.17799,0.15933,0.15789,0.16364,0.1701,0.18445,0.18804,0.18876,0.18732,0.17225,0.18589,0.19809,0.19809,0.20311,0.2067,0.22392,0.23182,0.22608,0.21531,0.211,0.21172,0.22679,0.239,0.22105,0.21244,0.21459,0.21029,0.19737,0.18014,0.17799,0.17297,0.16292,0.16579,0.16866,0.17727,0.18445,0.17727,0.16938,0.17225,0.17225,0.16364,0.15789,0.15646,0.16794,0.17368,0.18158,0.18517,0.16579,0.16579,0.17799,0.17584,0.16722,0.1744,0.17943,0.17153,0.18301,0.1866,0.18158,0.17297,0.17368,0.19378,0.1823,0.17512,0.17871,0.17225,0.16722,0.16435,0.15359,0.15215,0.16364,0.16435,0.16866,0.16292,0.15359,0.14856,0.14928,0.15,0.14928,0.15,0.15,0.16435,0.18804,0.1945,0.18445,0.17584,0.17297,0.18158,0.1823,0.1744,0.16292,0.15789,0.15933,0.15933,0.16292,0.1701,0.17297,0.17368,0.17297,0.16866,0.16435,0.16148,0.16148,0.16364,0.16651,0.16364,0.1823,0.2067,0.19952,0.18373,0.18445,0.18373,0.17799,0.17871,0.17225,0.16938,0.18517,0.19593,0.19593,0.19163,0.19306,0.2067,0.21459,0.20598,0.21029,0.21459,0.22105,0.22105,0.20885,0.21316,0.21675,0.22392,0.21818,0.2189,0.22177,0.19593,0.18014,0.18158,0.18445,0.18086,0.18517,0.18732,0.18373,0.1866,0.19234,0.19234,0.18947,0.19522,0.20167,0.21172,0.21746,0.21962,0.22392,0.22823,0.22895,0.21675,0.20455,0.20742,0.20598,0.20383,0.21388,0.20455,0.18373,0.18947,0.19019,0.18301,0.18445,0.18804,0.19593,0.1945,0.19234,0.19665,0.20239,0.20167,0.20598,0.211,0.20526,0.19378,0.19234,0.20957,0.22321,0.22105,0.21459,0.21172,0.1988,0.1866,0.18804,0.20167,0.21459,0.211,0.19809,0.18732,0.19378,0.20598,0.2067,0.19234,0.19522,0.20455,0.19593,0.19091,0.19163,0.20167,0.2067,0.20239,0.19593,0.18589,0.18014,0.19306,0.20311,0.19234,0.18876,0.1988,0.20167,0.19665,0.1866,0.17799,0.19952,0.20311,0.19306,0.18517,0.15574,0.15718,0.1744,0.18301,0.18804,0.18804,0.19091,0.18445,0.18373,0.19163,0.17368,0.15789,0.16722,0.16651,0.15502,0.15718,0.16435,0.15789,0.14498,0.14354,0.15502,0.16866,0.17512,0.16579,0.16938,0.17368,0.16579,0.16651,0.15574,0.15574,0.16794,0.16507,0.16005,0.16148,0.16866,0.17368,0.17297,0.16938,0.1622,0.16148,0.16938,0.17153,0.16938,0.17297,0.18014,0.18086,0.17081,0.17727,0.18876,0.18301,0.17081,0.16435,0.16794,0.15789,0.14928,0.14641,0.14856,0.1622,0.16292,0.16435,0.16364,0.15789,0.16148,0.16364,0.1701,0.17081,0.16794,0.16938,0.16148,0.16507,0.16722,0.16435,0.17727,0.18589,0.18732,0.19163,0.18445,0.17799,0.18158,0.17799,0.1744,0.17584,0.18445,0.18301,0.1823,0.17656,0.17153,0.17081,0.16579,0.17656,0.18373,0.20742,0.22392,0.21244,0.20957,0.20024,0.18947,0.17368,0.16435,0.15144,0.13278,0.11196,0.10191,0.14426,0.15789,0.13565,0.14498,0.15502,0.15574,0.15718,0.15574,0.15789,0.16364,0.16148,0.16077,0.16866,0.17727,0.16507,0.16148,0.17153,0.18158,0.19593,0.20024,0.20096,0.1945,0.19091,0.18301,0.16938,0.15646,0.13565,0.12344,0.12057,0.12775,0.13565,0.13278,0.14426,0.15646,0.15789,0.15646,0.15431,0.15072,0.15287,0.16077,0.1622,0.16794,0.16292,0.15359,0.15789,0.16364,0.1744,0.17799,0.17368,0.17871,0.18014,0.17368,0.17297,0.16866,0.1622,0.1744,0.19091,0.19593,0.20024,0.19737,0.19378,0.19737,0.19665,0.1988,0.20239,0.2067,0.20024,0.1945,0.19593,0.1823,0.17584,0.17584,0.17584,0.18445,0.19234,0.20167,0.20742,0.21316,0.21746,0.21531,0.211,0.20024,0.20742,0.22177,0.23325,0.23469,0.22464,0.23756,0.24761,0.2433,0.24258,0.25048,0.24617,0.24402,0.26053,0.26914,0.27703,0.28349,0.29282,0.29139,0.2756,0.26842,0.26842,0.26555,0.25694,0.25622,0.26699,0.26268,0.25622,0.27057,0.27632,0.26124,0.24402,0.239,0.25263,0.25766,0.25837,0.26411,0.26411,0.27919,0.28062,0.2756,0.27057,0.26411,0.26986,0.27847,0.28278,0.27344,0.26986,0.27775,0.28995,0.29282,0.28923,0.28062,0.27847,0.2799,0.26124,0.25909,0.25263,0.23469,0.23828,0.24187,0.24689,0.23182,0.21675,0.22751,0.22177,0.21675,0.2189,0.21962,0.211,0.1988,0.19091,0.17943,0.17656,0.17584,0.16938,0.1622,0.15933,0.15287,0.14498,0.14928,0.15144,0.14354,0.13565,0.13421,0.14856,0.15718,0.15072,0.14641,0.14498,0.14713,0.15431,0.16077,0.15933,0.15574,0.15,0.14713,0.13852,0.14498,0.16292,0.15646,0.14139,0.13062,0.13278,0.14211,0.14139,0.13636,0.13349,0.1378,0.14569,0.14426,0.14498,0.14641,0.15144,0.15215,0.13134,0.12847,0.14354,0.14641,0.14282,0.14282,0.15,0.15,0.13134,0.12847,0.13852,0.13708,0.13421,0.1299,0.13852,0.14856,0.14928,0.15359,0.14498,0.15215,0.17153,0.18947,0.19306,0.17799,0.16005,0.15574,0.1823,0.19952,0.21316,0.23684,0.24689,0.2677,0.28493,0.28278,0.29139,0.28923,0.29785,0.32943,0.35742,0.37608,0.4055,0.45215,0.47799,0.49737,0.51962,0.54833,0.59928,0.65096,0.70478,0.77368,0.83397,0.89569,0.94952,0.99187,1.04,1.0916,1.1411,1.1749,1.2093,1.2502,1.3069,1.3364,1.3608,1.3859,1.383,1.3672,1.3378,1.3033,1.2258,1.1361,1.055,0.97249,0.90072,0.82679,0.76292,0.71124,0.65096,0.5634,0.4701,0.39833,0.3323,0.29426,0.25981,0.21388,0.18517,0.15646,0.15,0.15359,0.15502,0.17081,0.17584,0.17727,0.19378,0.19234,0.18086,0.18589,0.19019,0.19019,0.18373,0.17656,0.17225,0.16364,0.1744,0.18086,0.16292,0.15287,0.15574,0.16579,0.17368,0.18589,0.19809,0.18876,0.1823,0.19234,0.19809,0.20024,0.1988,0.18732,0.17368,0.17297,0.17081,0.16938,0.17799,0.18373,0.19019,0.17225,0.17081,0.18589,0.18014,0.18947,0.1945,0.19593,0.1945,0.17512,0.16292,0.15574,0.15718,0.16938,0.16866,0.17727,0.19163,0.18947,0.18014,0.17584,0.17799,0.17153,0.16794,0.16938,0.1701,0.18014,0.18014,0.18014,0.18589,0.18014,0.18014,0.19378,0.20167,0.19378,0.18804,0.18876,0.18732,0.18589,0.1866,0.18014,0.17584,0.17943,0.17297,0.17512,0.18373,0.19522,0.20167,0.19809,0.18947,0.19234,0.21388,0.22967,0.23182,0.2311,0.24976,0.25478,0.24976,0.24689,0.22536,0.20813,0.19234,0.18947,0.18445,0.16507,0.15718,0.14713,0.14354,0.14354,0.14785,0.1622,0.17297,0.18086,0.19952,0.2067,0.21029,0.2311,0.22392,0.20813,0.19809,0.18301,0.17584,0.16938,0.17368,0.19593,0.20455,0.18373,0.17799,0.20957,0.22679,0.21818,0.21459,0.20813,0.1988,0.20024,0.20526,0.19665,0.16364,0.13852,0.13421,0.13206,0.13923,0.15072,0.16722,0.17297,0.16722,0.16722,0.16938,0.16722,0.15861,0.14785,0.14785,0.14713,0.13852,0.1622,0.18876,0.18876,0.18517,0.17584,0.16579,0.17297,0.18158,0.18876,0.19378,0.18804,0.1823,0.18445,0.1866,0.18589,0.17871,0.17727,0.18086,0.17799,0.18086,0.18947,0.19378,0.18804,0.17727,0.1744,0.17727,0.18445,0.1945,0.19593,0.1988,0.20167,0.20167,0.20167,0.20598,0.22177,0.22249,0.20598,0.20024,0.20383,0.20885,0.21746,0.21675,0.22249,0.24115,0.24043,0.2433,0.239,0.21459,0.21531,0.22392,0.21746,0.20598,0.19019,0.19234,0.21316,0.22249,0.22105,0.20957,0.1988,0.20526,0.21675,0.22105,0.22249,0.23541,0.24402,0.24402,0.24976,0.24187,0.22249,0.21603,0.22392,0.24904,0.25048,0.23612,0.22321,0.20598,0.22033,0.23756,0.25478,0.26914,0.26053,0.25335,0.25048,0.24545,0.23038,0.24187,0.27488,0.28421,0.27273,0.24904,0.23684,0.24043,0.24545,0.24187,0.22895,0.22823,0.23612,0.239,0.24258,0.24043,0.23469,0.24115,0.25694,0.2634,0.26268,0.27057,0.27273,0.26986,0.26699,0.26699,0.26627,0.26196,0.27057,0.27273,0.26124,0.27416,0.28493,0.27847,0.26914,0.24545,0.24904,0.26986,0.26914,0.27129,0.27919,0.29569,0.30287,0.29282,0.29067,0.28995,0.28134,0.27632,0.28206,0.29641,0.29856,0.28708,0.28062,0.26124,0.25622,0.26053,0.2555,0.26986,0.27129,0.26411,0.27632,0.27488,0.26914,0.27703,0.27129,0.26411,0.25909,0.25622,0.25766,0.25191,0.25191,0.25478,0.25335,0.25048,0.23828,0.2311,0.22967,0.23038,0.2311,0.23684,0.24689,0.24115,0.23182,0.22321,0.21962,0.20885,0.21675,0.24115,0.23541,0.23971,0.2433,0.23756,0.23756,0.23325,0.23684,0.24043,0.24689,0.24474,0.23541,0.2433,0.25981,0.25837,0.23612,0.22536,0.23541,0.23971,0.23325,0.2311,0.23182,0.22536,0.21818,0.21531,0.21746,0.21531,0.21603,0.21818,0.20167,0.19163,0.19737,0.20239,0.21029,0.20957,0.21459,0.23254,0.23325,0.22536,0.22321,0.22033,0.21172,0.21172,0.21316,0.21388,0.20813,0.20742,0.21459,0.21388,0.22321,0.23469,0.23325,0.22464,0.21675,0.211,0.20813,0.2067,0.20239,0.20598,0.21172,0.21172,0.211,0.21962,0.22679,0.21962,0.21172,0.21746,0.22536,0.23038,0.23612,0.22823,0.21675,0.20526,0.19593,0.20742,0.21244,0.20526,0.21531,0.21459,0.20742,0.21316,0.2189,0.22823,0.22464,0.21172,0.21603,0.22608,0.22679,0.22608,0.22033,0.2189,0.22033,0.211,0.21029,0.22679,0.239,0.22967,0.2189,0.20311,0.19378,0.20455,0.21675,0.22536,0.24258,0.25837,0.25766,0.2555,0.24761,0.23182,0.22823,0.23684,0.2311,0.23612,0.25335,0.25407,0.23971,0.23325,0.24258,0.22392,0.20957,0.21316,0.20526,0.20742,0.19665,0.17656,0.1744,0.18158,0.1823,0.17297,0.19091,0.21746,0.22679,0.23756,0.25478,0.25694,0.24402,0.23756,0.22392,0.22177,0.21675,0.20383,0.18445,0.16722,0.19378,0.22679,0.23182,0.23397,0.23325,0.22464,0.22392,0.22249,0.22536,0.21818,0.20311,0.18517,0.16938,0.18445,0.1945,0.20239,0.21818,0.21459,0.2189,0.23325,0.23541,0.22823,0.21388,0.22033,0.23182,0.22823,0.22033,0.2189,0.23397,0.23038,0.21818,0.22249,0.22177,0.22321,0.22105,0.20957,0.19665,0.19522,0.21172,0.21603,0.21962,0.22105,0.22177,0.21818,0.20598,0.21244,0.21172,0.20311,0.1988,0.19737,0.20742,0.21531,0.22464,0.22249,0.22321,0.22033,0.21172,0.21818,0.21962,0.21818,0.21172,0.20383,0.19522,0.20024,0.21531,0.211,0.20383,0.21029,0.20957,0.20167,0.2067,0.21603,0.23254,0.239,0.22823,0.22177,0.22392,0.22967,0.22895,0.21962,0.20885,0.20239,0.1988,0.20239,0.21603,0.21675,0.20813,0.20813,0.20598,0.20455,0.20383,0.19593,0.19665,0.20813,0.20742,0.19378,0.18804,0.19378,0.19809,0.20383,0.20885,0.21746,0.22033,0.22033,0.22464,0.22249,0.22033,0.2189,0.20383,0.19593,0.20311,0.21388,0.22249,0.21603,0.211,0.21316,0.20167,0.19306,0.19809,0.19809,0.21531,0.23182,0.21746,0.19809,0.19019,0.19952,0.20742,0.20813,0.21029,0.20813,0.20813,0.21603,0.22321,0.2189,0.2067,0.2067,0.21244,0.21388,0.2189,0.21962,0.20813,0.19306,0.19378,0.20383,0.20526,0.20311,0.20742,0.20167,0.19163,0.19163,0.18947,0.1945,0.20311,0.20239,0.20957,0.21603,0.2189,0.22177,0.21244,0.20813,0.20096,0.19809,0.20526,0.20311,0.20239,0.20311,0.20311,0.20024,0.19737,0.20096,0.19522,0.19163,0.1988,0.20024,0.1945,0.18947,0.19593,0.19378,0.19306,0.19234,0.18445,0.18732,0.20096,0.22608,0.23182,0.20813,0.20383,0.20598,0.19091,0.1988,0.21244,0.2067,0.20598,0.21029,0.211,0.19306,0.16794,0.15933,0.15431,0.14713,0.15718,0.17153,0.18947,0.19809,0.18804,0.18589,0.18445,0.18301,0.17727,0.16794,0.16651,0.16722,0.18373,0.18589,0.16938,0.16794,0.17297,0.17153,0.17153,0.18301,0.18014,0.16938,0.18373,0.20526,0.20311,0.19593,0.20024,0.19737,0.19593,0.20598,0.19737,0.17871,0.1866,0.18445,0.1744,0.1823,0.18517,0.18517,0.18517,0.1866,0.19306,0.19378,0.1823,0.17871,0.17943,0.18014,0.1866,0.17799,0.17081,0.17943,0.19593,0.20383,0.20311,0.20598,0.20383,0.21029,0.21675,0.22033,0.21675,0.21244,0.20742,0.20598,0.20957,0.19737,0.19378,0.20383,0.21172,0.2189,0.22536,0.23397,0.23038,0.23469,0.23828,0.25048,0.27632,0.28421,0.27632,0.26268,0.26483,0.26483,0.28565,0.30502,0.29139,0.28923,0.2799,0.26914,0.24545,0.21675,0.22967,0.23971,0.23397,0.23828,0.23971,0.24689,0.26699,0.27632,0.27919,0.29713,0.29426,0.27273,0.26699,0.27488,0.28421,0.28278,0.27847,0.27703,0.28206,0.28852,0.2878,0.28349,0.27847,0.28708,0.29569,0.29067,0.29426,0.29498,0.28421,0.27919,0.27273,0.27847,0.29713,0.30359,0.31507,0.31148,0.30861,0.3201,0.30502,0.28995,0.28134,0.27201,0.27129,0.26986,0.27775,0.28062,0.26483,0.25191,0.24976,0.24545,0.25694,0.27488,0.27201,0.26124,0.25407,0.25048,0.24115,0.23469,0.22967,0.21388,0.20024,0.1945,0.19306,0.18947,0.17512,0.16579,0.16651,0.16651,0.15718,0.15072,0.16938,0.18014,0.17297,0.16651,0.16866,0.16507,0.16077,0.15718,0.14569,0.15431,0.16435,0.15789,0.13636,0.13134,0.14713,0.15431,0.15431,0.15646,0.16077,0.15431,0.14641,0.14641,0.15215,0.15144,0.14928,0.15789,0.17871,0.18517,0.16866,0.15861,0.15718,0.16292,0.17225,0.17512,0.1744,0.1701,0.16148,0.16148,0.16866,0.16435,0.15789,0.15646,0.14928,0.14856,0.15646,0.15861,0.15072,0.15144,0.16148,0.16435,0.16722,0.16866,0.17225,0.16794,0.15933,0.17727,0.19809,0.19809,0.20167,0.21746,0.23684,0.24689,0.25263,0.27775,0.29713,0.30431,0.29856,0.29211,0.30287,0.32153,0.34522,0.36603,0.39402,0.43278,0.46938,0.51172,0.53828,0.5555,0.59641,0.63301,0.67392,0.7177,0.76292,0.8433,0.93014,0.99545,1.0414,1.0787,1.1211,1.1656,1.2187,1.2804,1.3242,1.3687,1.4132,1.4569,1.4785,1.4756,1.4548,1.4225,1.3931,1.3234,1.2266,1.1232,1.0385,0.96675,0.86627,0.79306,0.75646,0.69258,0.6,0.50167,0.41699,0.34809,0.29785,0.27416,0.24402,0.2067,0.18589,0.17225,0.1622,0.15789,0.16866,0.18804,0.1866,0.19091,0.19809,0.2067,0.21244,0.1945,0.17656,0.17153,0.16866,0.17225,0.18804,0.19091,0.19378,0.1988,0.18445,0.18086,0.18947,0.18445,0.19378,0.19593,0.17727,0.16722,0.15789,0.16866,0.17297,0.15933,0.15574,0.16651,0.16579,0.15144,0.14569,0.13852,0.15072,0.17225,0.17081,0.17153,0.17871,0.16651,0.14856,0.13206,0.13565,0.14856,0.14569,0.14354,0.13493,0.12703,0.12775,0.13421,0.14713,0.15574,0.16077,0.15574,0.14139,0.13421,0.13349,0.14641,0.14354,0.12847,0.13134,0.13206,0.13995,0.14211,0.14928,0.15789,0.16364,0.16651,0.14785,0.13923,0.13493,0.12847,0.12919,0.13852,0.15072,0.14713,0.14785,0.14928,0.15,0.14928,0.14569,0.16722,0.1866,0.1701,0.14282,0.13565,0.13278,0.13134,0.12416,0.12273,0.13278,0.1299,0.1299,0.13134,0.14426,0.15502,0.14426,0.12847,0.1256,0.13852,0.14641,0.14569,0.15718,0.16077,0.16077,0.16364,0.16507,0.1744,0.17584,0.15718,0.13062,0.13206,0.15,0.16794,0.1823,0.17153,0.16364,0.16148,0.15502,0.14569,0.14067,0.14928,0.1622,0.1701,0.1622,0.15861,0.15144,0.15287,0.15574,0.15789,0.1701,0.16292,0.15,0.14569,0.14641,0.15502,0.14928,0.14067,0.14282,0.14354,0.14426,0.14139,0.14354,0.15,0.14785,0.13493,0.1299,0.14211,0.14641,0.15144,0.15072,0.13206,0.12416,0.12129,0.12416,0.14426,0.15718,0.15933,0.15574,0.15502,0.16292,0.16292,0.16005,0.15574,0.15144,0.13708,0.13852,0.15144,0.15359,0.15574,0.16005,0.16364,0.15861,0.15431,0.15646,0.16435,0.15861,0.15431,0.17512,0.17153,0.16579,0.17584,0.18086,0.17871,0.18014,0.19019,0.17943,0.18517,0.20383,0.20598,0.20526,0.20598,0.21172,0.21172,0.22392,0.24043,0.23684,0.21962,0.1866,0.15861,0.15359,0.15431,0.14928,0.14785,0.14211,0.12273,0.12129,0.1299,0.12416,0.13206,0.14139,0.14354,0.15502,0.17368,0.19378,0.20455,0.21388,0.22033,0.21388,0.1988,0.1945,0.22033,0.23254,0.22033,0.21818,0.19952,0.18086,0.18373,0.19234,0.19809,0.19809,0.18589,0.15574,0.15502,0.17584,0.1988,0.22105,0.23541,0.24402,0.24258,0.24545,0.23971,0.22679,0.23541,0.24115,0.23612,0.22249,0.20885,0.21675,0.22392,0.22895,0.22392,0.22751,0.22679,0.211,0.20024,0.18301,0.18014,0.18804,0.20455,0.22105,0.22249,0.22608,0.22823,0.22177,0.2311,0.24545,0.25694,0.26555,0.27273,0.26842,0.24761,0.23397,0.239,0.24976,0.25909,0.2512,0.23828,0.24115,0.24043,0.24689,0.26699,0.27703,0.26986,0.26268,0.25766,0.24833,0.22823,0.22105,0.23254,0.23397,0.23397,0.22249,0.21531,0.22105,0.22249,0.22033,0.21531,0.21388,0.21603,0.21459,0.22177,0.22967,0.22536,0.23038,0.23612,0.24402,0.23684,0.23182,0.23254,0.22177,0.21746,0.22392,0.22105,0.21244,0.211,0.21316,0.22608,0.22608,0.22033,0.21603,0.20885,0.21746,0.2189,0.20885,0.2189,0.21962,0.21029,0.22033,0.22464,0.22033,0.21603,0.211,0.20885,0.21029,0.22033,0.21531,0.20885,0.19809,0.19234,0.18732,0.16005,0.16722,0.16579,0.1622,0.18158,0.17656,0.16866,0.17943,0.18445,0.17656,0.17871,0.17512,0.16005,0.16364,0.17799,0.18517,0.19163,0.19091,0.19306,0.1988,0.18445,0.18301,0.20239,0.20455,0.20239,0.20167,0.19522,0.17584,0.16148,0.16579,0.17512,0.18589,0.19019,0.18517,0.18804,0.1988,0.1945,0.18158,0.17584,0.1866,0.20167,0.20957,0.21388,0.21244,0.21172,0.20239,0.18947,0.18301,0.18804,0.20957,0.21172,0.20096,0.19665,0.19737,0.20526,0.19737,0.1988,0.1988,0.18876,0.19019,0.1823,0.18947,0.1988,0.20024,0.21244,0.20526,0.20598,0.21603,0.21962,0.22464,0.21818,0.21172,0.19378,0.19091,0.20239,0.19809,0.19306,0.19163,0.18876,0.18445,0.19378,0.21316,0.22177,0.22105,0.2189,0.21244,0.20742,0.21172,0.21603,0.21029,0.20526,0.2067,0.21818,0.21818,0.20957,0.20455,0.20383,0.21172,0.20526,0.20885,0.21746,0.21316,0.21029,0.19593,0.20885,0.22608,0.21962,0.2067,0.19737,0.20024,0.20239,0.2067,0.20526,0.20598,0.22249,0.22249,0.21746,0.22177,0.21459,0.20598,0.20455,0.21675,0.21818,0.2067,0.20885,0.21675,0.21531,0.20167,0.211,0.22249,0.21818,0.22105,0.21531,0.21029,0.211,0.21818,0.23325,0.23182,0.23325,0.23541,0.23469,0.24115,0.23397,0.21603,0.211,0.22751,0.23828,0.24545,0.24115,0.23325,0.24689,0.24833,0.23612,0.22536,0.22536,0.22751,0.22536,0.23325,0.23971,0.23612,0.23397,0.23325,0.23182,0.22392,0.22105,0.21316,0.21316,0.22105,0.21172,0.21172,0.21388,0.21316,0.21818,0.22033,0.21818,0.22105,0.23325,0.23971,0.23038,0.22033,0.22392,0.2311,0.22679,0.22321,0.23254,0.22679,0.22823,0.23182,0.21675,0.21029,0.2067,0.20526,0.20598,0.21746,0.21244,0.19522,0.20742,0.2189,0.23469,0.24474,0.23397,0.22321,0.21746,0.22105,0.22321,0.22536,0.22895,0.21459,0.20742,0.20455,0.19593,0.1988,0.19737,0.20813,0.23469,0.23397,0.22105,0.21818,0.21029,0.21172,0.21459,0.21459,0.21675,0.22249,0.22608,0.22105,0.22392,0.22177,0.211,0.20239,0.20526,0.22608,0.23612,0.24258,0.23971,0.239,0.26699,0.26699,0.25407,0.24689,0.22823,0.20096,0.18732,0.18086,0.17153,0.16938,0.16938,0.16794,0.16005,0.16866,0.18301,0.19306,0.19593,0.19522,0.20024,0.19809,0.19378,0.19091,0.19522,0.18589,0.19163,0.20742,0.1988,0.2189,0.239,0.22608,0.2189,0.21531,0.20957,0.20383,0.19378,0.18158,0.17512,0.16579,0.16651,0.18301,0.20096,0.20957,0.20024,0.18014,0.17799,0.19163,0.19665,0.20239,0.20311,0.18804,0.17081,0.18086,0.19019,0.17225,0.1866,0.20885,0.20885,0.21172,0.211,0.20598,0.20455,0.19737,0.19019,0.20311,0.2067,0.20167,0.20311,0.20383,0.20167,0.20096,0.19952,0.19737,0.2067,0.20239,0.20455,0.21531,0.211,0.20885,0.20742,0.21029,0.21316,0.20526,0.18589,0.18086,0.19378,0.19809,0.18732,0.18086,0.18445,0.18445,0.19234,0.21459,0.22536,0.21388,0.21603,0.23684,0.23397,0.22105,0.22392,0.22895,0.2433,0.25694,0.25335,0.2433,0.24043,0.24187,0.23254,0.21962,0.21388,0.21244,0.20311,0.211,0.22608,0.23325,0.24043,0.23397,0.22033,0.21675,0.21531,0.21244,0.21962,0.22249,0.21316,0.21388,0.22895,0.23325,0.24474,0.26483,0.27057,0.27129,0.26842,0.26842,0.27201,0.2756,0.27775,0.27201,0.24761,0.2311,0.23541,0.24187,0.24976,0.25478,0.26699,0.27632,0.27273,0.2677,0.26914,0.27273,0.27416,0.29211,0.30861,0.3122,0.32081,0.32871,0.33158,0.33158,0.32584,0.31507,0.29785,0.29067,0.30574,0.32297,0.31722,0.30431,0.30861,0.31148,0.31292,0.30789,0.3122,0.31148,0.30933,0.31794,0.31579,0.31579,0.31148,0.31005,0.30502,0.30861,0.31722,0.32656,0.34091,0.3445,0.34234,0.33301,0.32799,0.32656,0.32153,0.31579,0.31005,0.31148,0.31794,0.31938,0.31651,0.31435,0.29282,0.2756,0.2756,0.27344,0.2878,0.28852,0.2756,0.27416,0.2634,0.26053,0.26196,0.25048,0.24258,0.23397,0.21603,0.20742,0.21459,0.2189,0.22105,0.211,0.19234,0.18876,0.20239,0.20526,0.18589,0.18947,0.211,0.20526,0.19522,0.20167,0.20024,0.20813,0.20024,0.19522,0.21172,0.20167,0.19593,0.19234,0.17656,0.1866,0.19809,0.1945,0.19019,0.18947,0.19952,0.19234,0.18947,0.20813,0.21675,0.20455,0.19091,0.19091,0.1823,0.17584,0.17871,0.17656,0.17368,0.17297,0.1744,0.16938,0.15574,0.1622,0.17512,0.1744,0.16938,0.15431,0.15144,0.16292,0.16364,0.1701,0.17368,0.17512,0.18373,0.17584,0.17584,0.19665,0.1988,0.20383,0.21388,0.21531,0.21962,0.22321,0.23397,0.23684,0.23828,0.25048,0.26986,0.28206,0.30215,0.32512,0.32081,0.31579,0.31866,0.32656,0.35167,0.38397,0.42129,0.46077,0.4823,0.50885,0.53325,0.57129,0.62297,0.67033,0.73636,0.79091,0.8433,0.91148,0.98828,1.055,1.1089,1.1533,1.1986,1.2545,1.3105,1.3672,1.4167,1.4591,1.4842,1.4978,1.5,1.4756,1.4469,1.4074,1.3378,1.2423,1.1404,1.0565,0.97679,0.88923,0.80598,0.74426,0.69474,0.63732,0.52967,0.42344,0.3567,0.30646,0.2677,0.20957,0.18086,0.16507,0.15574,0.15287,0.12847,0.11842,0.13134,0.14569,0.15574,0.17081,0.17727,0.16722,0.15933,0.14569,0.14641,0.15789,0.15502,0.14713,0.15646,0.17584,0.17081,0.16435,0.15933,0.16148,0.17153,0.17297,0.17081,0.16507,0.1823,0.19809,0.17799,0.16794,0.17799,0.18014,0.18517,0.18517,0.18373,0.18589,0.17871,0.17153,0.1823,0.19522,0.18445,0.17153,0.18014,0.18158,0.16435,0.16866,0.18445,0.18876,0.1823,0.17368,0.18517,0.19378,0.19306,0.18876,0.17727,0.18014,0.18804,0.19234,0.19378,0.19163,0.19593,0.19378,0.18804,0.18876,0.17512,0.1744,0.18014,0.17225,0.17081,0.17225,0.18804,0.19737,0.19809,0.19593,0.19091,0.19306,0.1945,0.20311,0.20311,0.1988,0.2067,0.22177,0.22751,0.21531,0.20813,0.20024,0.18158,0.17799,0.17297,0.14856,0.16077,0.20885,0.21388,0.18301,0.17727,0.19306,0.21029,0.22392,0.22105,0.21029,0.21172,0.21675,0.20526,0.20239,0.20239,0.19163,0.19952,0.19378,0.18876,0.20957,0.20885,0.19809,0.19952,0.18804,0.19091,0.19163,0.17225,0.17727,0.18014,0.1866,0.19593,0.19737,0.19593,0.20311,0.20885,0.19665,0.1988,0.20024,0.20024,0.18732,0.19952,0.20813,0.18804,0.20167,0.2067,0.20383,0.20526,0.1988,0.19378,0.18876,0.17943,0.17943,0.17943,0.18014,0.19019,0.19378,0.19522,0.19809,0.20239,0.20024,0.20526,0.21818,0.21531,0.20957,0.20455,0.20024,0.20957,0.20167,0.20957,0.22033,0.20742,0.21029,0.20742,0.20455,0.1945,0.18517,0.18732,0.18947,0.20024,0.20096,0.1945,0.20383,0.2189,0.21172,0.19522,0.20598,0.21818,0.22895,0.23828,0.20885,0.20957,0.23756,0.23756,0.23469,0.21172,0.19234,0.20742,0.21746,0.21675,0.21962,0.21818,0.22033,0.23038,0.22823,0.22464,0.22751,0.22895,0.22033,0.20455,0.21459,0.22751,0.23397,0.24043,0.24115,0.24761,0.25407,0.2555,0.2555,0.24976,0.25407,0.27129,0.26627,0.25622,0.2512,0.23612,0.2311,0.2311,0.23756,0.23971,0.24474,0.26196,0.26986,0.26699,0.27057,0.27201,0.26483,0.2677,0.26053,0.25263,0.25694,0.26124,0.26555,0.26483,0.26627,0.27775,0.2634,0.2433,0.25191,0.2677,0.27632,0.27273,0.2634,0.25909,0.2555,0.25263,0.25766,0.25478,0.24402,0.26053,0.29139,0.28349,0.24761,0.24187,0.26124,0.2677,0.28278,0.29282,0.28852,0.27416,0.26986,0.2677,0.26268,0.27847,0.28852,0.29856,0.29354,0.29211,0.30431,0.29282,0.28493,0.28923,0.28062,0.28852,0.29713,0.28852,0.29354,0.2878,0.27775,0.2677,0.26268,0.27201,0.27847,0.2878,0.27919,0.27344,0.29211,0.28923,0.27416,0.26483,0.25766,0.26555,0.26842,0.26842,0.27201,0.26627,0.27057,0.27847,0.28349,0.27919,0.27488,0.27129,0.26268,0.26914,0.25981,0.24904,0.25909,0.27703,0.27775,0.26483,0.2433,0.23541,0.25478,0.24258,0.23182,0.24904,0.26268,0.26196,0.26268,0.25622,0.24833,0.2433,0.24904,0.25766,0.239,0.23325,0.24904,0.24833,0.2433,0.23971,0.239,0.24187,0.2311,0.23612,0.24258,0.23971,0.22751,0.22967,0.26124,0.26483,0.25478,0.24402,0.24761,0.27129,0.28421,0.28708,0.26268,0.25766,0.27775,0.27129,0.26483,0.26627,0.27273,0.27703,0.27775,0.26483,0.26053,0.25263,0.21675,0.19593,0.17656,0.17153,0.17512,0.17943,0.18445,0.17656,0.17512,0.19091,0.20239,0.20311,0.21029,0.21172,0.22177,0.23612,0.23971,0.24187,0.2512,0.25263,0.24976,0.23828,0.22536,0.22536,0.22249,0.21172,0.2067,0.19737,0.18301,0.18876,0.19163,0.19163,0.19952,0.20239,0.21172,0.22249,0.21962,0.22679,0.2311,0.22249,0.22751,0.23254,0.211,0.19522,0.20957,0.2189,0.20598,0.19737,0.2067,0.20957,0.21244,0.211,0.20526,0.20885,0.21603,0.21244,0.20024,0.20383,0.20813,0.2067,0.21962,0.23325,0.22608,0.21962,0.22608,0.19952,0.19593,0.24115,0.26555,0.25837,0.23971,0.22536,0.21603,0.21603,0.22249,0.22464,0.20885,0.20167,0.22751,0.25766,0.27201,0.26053,0.24689,0.23469,0.24115,0.239,0.23469,0.25694,0.25981,0.24976,0.24187,0.23612,0.22823,0.23469,0.2433,0.2311,0.22967,0.23254,0.22392,0.21962,0.22679,0.22967,0.23756,0.23541,0.23971,0.25766,0.25766,0.25478,0.24258,0.23541,0.23684,0.22464,0.21388,0.2189,0.24043,0.24904,0.24258,0.23038,0.21388,0.22033,0.23756,0.23038,0.22464,0.24115,0.23684,0.22536,0.23254,0.23038,0.2189,0.2189,0.21388,0.20455,0.19378,0.19234,0.19737,0.18589,0.19163,0.20239,0.19665,0.20024,0.20885,0.211,0.20024,0.19737,0.21962,0.22967,0.23684,0.22392,0.22823,0.27703,0.27416,0.25837,0.25622,0.24545,0.24043,0.239,0.23541,0.22823,0.23325,0.24043,0.239,0.24258,0.24474,0.24761,0.24833,0.25263,0.24617,0.24043,0.25837,0.25622,0.23828,0.23541,0.24545,0.25622,0.2512,0.24187,0.23828,0.22392,0.20957,0.20957,0.22536,0.23756,0.23182,0.2311,0.23182,0.21531,0.20885,0.23038,0.22321,0.20813,0.20526,0.19378,0.20526,0.22679,0.23038,0.22464,0.22967,0.23469,0.22823,0.22679,0.23038,0.22033,0.21746,0.23325,0.24258,0.24043,0.23541,0.23182,0.2433,0.24689,0.22608,0.22321,0.23541,0.23684,0.24402,0.24976,0.23182,0.22321,0.24187,0.24761,0.22895,0.2311,0.24976,0.24187,0.23254,0.24115,0.2555,0.26053,0.2433,0.23397,0.22823,0.22249,0.23684,0.23684,0.23756,0.24545,0.24761,0.23971,0.23397,0.24258,0.23612,0.23182,0.22679,0.22321,0.22823,0.2311,0.24258,0.22967,0.20742,0.2189,0.21746,0.21316,0.20957,0.20813,0.22751,0.24761,0.24689,0.23612,0.24187,0.25263,0.24904,0.22895,0.2067,0.20598,0.22608,0.22679,0.22608,0.23182,0.22895,0.23182,0.23612,0.24043,0.23828,0.24187,0.23469,0.23684,0.24904,0.23756,0.23612,0.23684,0.22895,0.22751,0.23828,0.23469,0.23038,0.23038,0.21818,0.24761,0.26483,0.27488,0.30933,0.31077,0.28493,0.23684,0.22249,0.25909,0.28493,0.29713,0.29354,0.2756,0.25478,0.24258,0.2189,0.21388,0.23325,0.21746,0.20885,0.211,0.21459,0.23254,0.23756,0.23182,0.22536,0.22177,0.24617,0.29713,0.31866,0.33732,0.37177,0.37321,0.34593,0.33947,0.33445,0.30144,0.27344,0.25766,0.25622,0.22464,0.19522,0.21531,0.22608,0.22464,0.2189,0.21172,0.23469,0.26627,0.26411,0.25407,0.27057,0.27847,0.28636,0.3201,0.361,0.40478,0.42775,0.43565,0.42129,0.40048,0.39474,0.361,0.3366,0.32656,0.30144,0.28636,0.26986,0.25909,0.2677,0.29211,0.31077,0.31435,0.30144,0.29211,0.29426,0.30502,0.32153,0.3122,0.28708,0.27775,0.28923,0.30072,0.31435,0.32081,0.31435,0.3201,0.32081,0.32153,0.32727,0.33373,0.32871,0.30502,0.29641,0.27273,0.2677,0.29785,0.28852,0.26124,0.25694,0.26411,0.27129,0.27488,0.29426,0.32081,0.30861,0.30215,0.31292,0.30287,0.27919,0.28349,0.28565,0.2555,0.24976,0.2555,0.25191,0.23182,0.22679,0.22608,0.21746,0.21746,0.20957,0.20598,0.19163,0.18445,0.18014,0.1866,0.22033,0.23541,0.2433,0.23612,0.20598,0.18014,0.17512,0.1823,0.17656,0.18589,0.21244,0.21675,0.20598,0.211,0.21675,0.2067,0.20024,0.18373,0.19665,0.22536,0.22105,0.23541,0.2189,0.18947,0.19019,0.19665,0.19163,0.17799,0.16794,0.15359,0.16435,0.17584,0.17297,0.17297,0.18804,0.20311,0.2067,0.22105,0.23469,0.2555,0.26627,0.26268,0.25766,0.22608,0.23756,0.25909,0.2433,0.2433,0.23684,0.22536,0.20957,0.20239,0.1988,0.20239,0.2067,0.20742,0.22967,0.23541,0.25478,0.28708,0.29498,0.31077,0.31507,0.31579,0.32871,0.34378,0.36818,0.37895,0.39043,0.40981,0.42703,0.4622,0.51029,0.53541,0.54115,0.55478,0.59282,0.66459,0.72488,0.77799,0.83756,0.91148,0.99474,1.0493,1.0701,1.0787,1.1261,1.1526,1.1792,1.2553,1.3191,1.3572,1.3816,1.3931,1.3902,1.3622,1.3285,1.2904,1.2301,1.1548,1.0615,1.0041,0.92727,0.82177,0.75144,0.69402,0.64522,0.56627,0.50885,0.46938,0.39904,0.32871,0.25263,0.20742,0.17943,0.15431,0.13708,0.10981,0.12488,0.1701,0.18589,0.20024,0.21746,0.21962,0.22751,0.23469,0.23612,0.20813,0.20311,0.20742,0.16507,0.15861,0.18517,0.20742,0.20311,0.20885,0.22895,0.23971,0.25837,0.2677,0.26699,0.25335,0.24402,0.23612,0.22033,0.20526,0.19809,0.19234,0.20598,0.22177,0.23038,0.24187,0.23971,0.22105,0.22751,0.23254,0.18876,0.17799,0.18086,0.18947,0.21172,0.22177,0.23325,0.22751,0.21603,0.20598,0.20383,0.2189,0.2067,0.1744,0.18589,0.1988,0.20383,0.20024,0.20167,0.22392,0.21172,0.22895,0.2634,0.2555,0.24689,0.22464,0.21244,0.20598,0.20311,0.22536,0.23397,0.23254,0.23612,0.23971,0.23469,0.24402,0.25407,0.28852,0.31364,0.28636,0.26124,0.2555,0.26555,0.28134,0.28062,0.26268,0.25335,0.22823,0.23756,0.26196,0.25191,0.24545,0.21172,0.18589,0.19163,0.19737,0.21459,0.23182,0.24043,0.23397,0.211,0.22823,0.22751,0.1988,0.20096,0.20024,0.19378,0.18517,0.19952,0.19952,0.1945,0.20598,0.21388,0.24904,0.27488,0.27775,0.27344,0.25837,0.239,0.23038,0.22392,0.211,0.20526,0.20742,0.19593,0.1744,0.17799,0.19952,0.21531,0.22033,0.22608,0.23756,0.25478,0.26196,0.26627,0.2799,0.28493,0.27344,0.24689,0.23469,0.23254,0.22033,0.21244,0.21675,0.20598,0.19091,0.17656,0.17512,0.21388,0.24474,0.27201,0.28995,0.28349,0.26986,0.26196,0.24761,0.22321,0.20598,0.21746,0.23684,0.21962,0.20383,0.21818,0.27057,0.27201,0.26914,0.30359,0.30789,0.29498,0.28062,0.29498,0.28134,0.26196,0.25981,0.27488,0.27775,0.26124,0.25909,0.26268,0.27273,0.25478,0.27703,0.32727,0.34522,0.36029,0.34234,0.31292,0.29928,0.27703,0.25478,0.2311,0.21531,0.20742,0.20455,0.19378,0.19952,0.21531,0.19737,0.20024,0.22105,0.22464,0.22608,0.2189,0.21746,0.24187,0.25335,0.25909,0.27919,0.28278,0.29211,0.29856,0.28206,0.2878,0.28278,0.26627,0.27057,0.24689,0.24115,0.24115,0.23971,0.25837,0.25478,0.27632,0.28062,0.25837,0.28493,0.29426,0.28278,0.29641,0.29498,0.30502,0.29713,0.27201,0.27632,0.27273,0.2634,0.26268,0.2677,0.28278,0.29641,0.29856,0.30574,0.31148,0.33589,0.34737,0.32799,0.33086,0.33947,0.34665,0.34306,0.31364,0.28995,0.29282,0.2756,0.25837,0.27201,0.29211,0.31148,0.31077,0.31364,0.31651,0.28852,0.27847,0.29139,0.29067,0.2677,0.25909,0.25837,0.24833,0.24976,0.25837,0.25837,0.25837,0.27488,0.27201,0.26483,0.26555,0.27775,0.29641,0.2878,0.27703,0.27129,0.25335,0.26986,0.30789,0.30646,0.30287,0.30646,0.30072,0.29641,0.28708,0.28206,0.28134,0.28349,0.29785,0.27344,0.27775,0.31435,0.33086,0.36746,0.37177,0.34737,0.32153,0.29785,0.2677,0.25622,0.25909,0.239,0.23971,0.23684,0.22105,0.21746,0.239,0.26555,0.25263,0.25766,0.26842,0.25622,0.24689,0.24474,0.26053,0.2756,0.29426,0.3201,0.32584,0.31077,0.29211,0.30789,0.32081,0.32297,0.33086,0.30718,0.28062,0.25048,0.20239,0.19665,0.21316,0.24115,0.28062,0.29569,0.29067,0.27488,0.26124,0.2555,0.26196,0.25837,0.2311,0.22033,0.23684,0.24761,0.23397,0.20598,0.19593,0.23397,0.25622,0.25694,0.2756,0.27273,0.26627,0.2555,0.23469,0.24115,0.26627,0.27344,0.30144,0.33947,0.3122,0.26914,0.25622,0.24258,0.24545,0.27273,0.26914,0.25478,0.25263,0.2555,0.26699,0.2799,0.28134,0.28636,0.26986,0.2555,0.2756,0.28708,0.29426,0.27416,0.25909,0.26483,0.24976,0.24258,0.26053,0.26914,0.27632,0.29928,0.30933,0.31077,0.30215,0.29067,0.26986,0.24761,0.25837,0.25694,0.24115,0.2189,0.21603,0.26268,0.2634,0.25335,0.27201,0.28134,0.29354,0.29569,0.31148,0.30789,0.2878,0.27488,0.25335,0.25191,0.2512,0.25766,0.26699,0.2799,0.2799,0.26268,0.26627,0.27344,0.28206,0.28493,0.28852,0.27919,0.27344,0.27273,0.28493,0.31507,0.30431,0.3,0.31579,0.31435,0.3201,0.29785,0.24402,0.23828,0.26411,0.26483,0.25478,0.23254,0.23397,0.25478,0.25981,0.27129,0.28134,0.29785,0.31579,0.31938,0.31005,0.29354,0.27057,0.25981,0.2677,0.26483,0.25766,0.26053,0.25478,0.25191,0.25837,0.25837,0.26411,0.26627,0.2799,0.29426,0.29067,0.29139,0.28493,0.27201,0.28206,0.31507,0.3201,0.30502,0.3,0.30789,0.30933,0.30431,0.30718,0.30574,0.30718,0.3122,0.31435,0.31507,0.30646,0.30359,0.30502,0.29928,0.29354,0.29282,0.30789,0.32656,0.30789,0.28278,0.32225,0.34306,0.33373,0.37177,0.38828,0.37464,0.36746,0.36172,0.35024,0.34952,0.34091,0.3201,0.30789,0.27847,0.25909,0.25837,0.27057,0.27703,0.27775,0.28636,0.28421,0.27632,0.26268,0.25048,0.24976,0.2799,0.31005,0.30789,0.30144,0.29354,0.3,0.29426,0.26986,0.27273,0.27919,0.28206,0.27703,0.25694,0.23397,0.21818,0.20742,0.20167,0.21746,0.24617,0.26627,0.26914,0.27703,0.28278,0.28923,0.29498,0.28565,0.27344,0.27057,0.28062,0.28349,0.28206,0.27057,0.25478,0.24833,0.239,0.25263,0.26053,0.25407,0.24761,0.25407,0.26053,0.25837,0.25981,0.25407,0.26483,0.2756,0.29569,0.31148,0.31005,0.30359,0.28708,0.27201,0.25191,0.24833,0.24545,0.23182,0.23038,0.239,0.25335,0.26053,0.26483,0.27919,0.29354,0.30431,0.31507,0.31938,0.31507,0.29641,0.26627,0.25909,0.26986,0.27703,0.28708,0.28493,0.28206,0.27416,0.2756,0.27344,0.25622,0.25335,0.25335,0.24258,0.23325,0.24258,0.24545,0.25407,0.27703,0.28852,0.2878,0.28421,0.26699,0.23828,0.22823,0.2189,0.22536,0.2311,0.21244,0.20885,0.21818,0.22608,0.22392,0.22967,0.22679,0.23684,0.25909,0.25694,0.24545,0.24187,0.25191,0.26196,0.2677,0.28278,0.28565,0.2677,0.26555,0.25263,0.24043,0.24258,0.25335,0.28349,0.29354,0.29354,0.31507,0.3201,0.29713,0.28349,0.2677,0.24904,0.23038,0.23038,0.28206,0.30861,0.26196,0.24761,0.26555,0.25837,0.27847,0.29498,0.2799,0.27919,0.28421,0.28278,0.27273,0.27273,0.2878,0.2878,0.28206,0.28062,0.28349,0.29282,0.3,0.30646,0.31579,0.3201,0.32943,0.34163,0.35024,0.34019,0.30861,0.28565,0.27416,0.27919,0.3,0.31507,0.32225,0.3201,0.31651,0.31866,0.32584,0.33301,0.3323,0.3244,0.31722,0.32512,0.34234,0.34091,0.33876,0.35024,0.35526,0.36603,0.36316,0.35024,0.33445,0.32871,0.32656,0.32368,0.32584,0.32799,0.34091,0.34163,0.35239,0.36029,0.35096,0.34019,0.3488,0.37177,0.36244,0.36603,0.36675,0.34306,0.34163,0.35167,0.34163,0.30215,0.28206,0.28134,0.25837,0.23612,0.23469,0.24689,0.22679,0.2067,0.20311,0.18947,0.18301,0.19809,0.22321,0.21316,0.21388,0.21818,0.23182,0.26196,0.24474,0.23182,0.24115,0.23684
