0.60739,0.60772,0.63204,0.67429,0.70765,0.72773,0.73736,0.73312,0.71249,0.67825,0.63225,0.6074,0.60751,0.60745,0.60702,0.60761,0.6081,0.69028,0.85468,1.0185,1.1832,1.3495,1.5,1.3497,1.183,1.0185,0.85494,0.68991,0.59576,0.55197,0.50795,0.46939,0.50857,0.55141,0.59507,0.60723,0.60737,0.60736,0.60747,0.6072,0.63395,0.67594,0.71501,0.74907,0.77586,0.79453,0.80429,0.80419,0.79454,0.77596,0.74896,0.71503,0.67604,0.63383,0.60722,0.60758,0.60723,0.60733,0.6075,0.60726,0.60734,0.6075,0.60722,0.60846,0.62041,0.62672,0.62503,0.61613,0.60715,0.60739,0.60748,0.60723,0.60737,0.60752,0.60718,0.60739,0.60772,0.63204,0.67429,0.70765,0.72773,0.73736,0.73312,0.71249,0.67825,0.63225,0.6074,0.60751,0.60745,0.60702,0.60761,0.6081,0.69028,0.85468,1.0185,1.1832,1.3495,1.5,1.3497,1.183,1.0185,0.85494,0.68991,0.59576,0.55197,0.50795,0.46939,0.50857,0.55141,0.59507,0.60723,0.60737,0.60736,0.60747,0.6072,0.63395,0.67594,0.71501,0.74907,0.77586,0.79453,0.80429,0.80419,0.79454,0.77596,0.74896,0.71503,0.67604,0.63383,0.60722,0.60758,0.60723,0.60733,0.6075,0.60726,0.60734,0.6075,0.60722,0.60846,0.62041,0.62672,0.62503,0.61613,0.60715,0.60739,0.60748,0.60723,0.60737,0.60752,0.60718,0.60739,0.60772,0.63204,0.67429,0.70765,0.72773,0.73736,0.73312,0.71249,0.67825,0.63225,0.6074,0.60751,0.60745,0.60702,0.60761,0.6081,0.69028,0.85468,1.0185,1.1832,1.3495,1.5,1.3497,1.183,1.0185,0.85494,0.68991,0.59576,0.55197,0.50795,0.46939,0.50857,0.55141,0.59507,0.60723,0.60737,0.60736,0.60747,0.6072,0.63395,0.67594,0.71501,0.74907,0.77586,0.79453,0.80429,0.80419,0.79454,0.77596,0.74896,0.71503,0.67604,0.63383,0.60722,0.60758,0.60723,0.60733,0.6075,0.60726,0.60734,0.6075,0.60722,0.60846,0.62041,0.62672,0.62503,0.61613,0.60715,0.60739,0.60748,0.60723,0.60737,0.60752,0.60718,0.60739,0.60772,0.63204,0.67429,0.70765,0.72773,0.73736,0.73312,0.71249,0.67825,0.63225,0.6074,0.60751,0.60745,0.60702,0.60761,0.6081,0.69028,0.85468,1.0185,1.1832,1.3495,1.5,1.3497,1.183,1.0185,0.85494,0.68991,0.59576,0.55197,0.50795,0.46939,0.50857,0.55141,0.59507,0.60723,0.60737,0.60736,0.60747,0.6072,0.63395,0.67594,0.71501,0.74907,0.77586,0.79453,0.80429,0.80419,0.79454,0.77596,0.74896,0.71503,0.67604,0.63383,0.60722,0.60758,0.60723,0.60733,0.6075,0.60726,0.60734,0.6075,0.60722,0.60846,0.62041,0.62672,0.62503,0.61613,0.60715,0.60739,0.60748,0.60723,0.60737,0.60752,0.60718,0.60739,0.60772,0.63204,0.67429,0.70765,0.72773,0.73736,0.73312,0.71249,0.67825,0.63225,0.6074,0.60751,0.60745,0.60702,0.60761,0.6081,0.69028,0.85468,1.0185,1.1832,1.3495,1.5,1.3497,1.183,1.0185,0.85494,0.68991,0.59576,0.55197,0.50795,0.46939,0.50857,0.55141,0.59507,0.60723,0.60737,0.60736,0.60747,0.6072,0.63395,0.67594,0.71501,0.74907,0.77586,0.79453,0.80429,0.80419,0.79454,0.77596,0.74896,0.71503,0.67604,0.63383,0.60722,0.60758,0.60723,0.60733,0.6075,0.60726,0.60734,0.6075,0.60722,0.60846,0.62041,0.62672,0.62503,0.61613,0.60715,0.60739,0.60748,0.60723,0.60737,0.60752,0.60718,0.60739,0.60772,0.63204,0.67429,0.70765,0.72773,0.73736,0.73312,0.71249,0.67825,0.63225,0.6074,0.60751,0.60745,0.60702,0.60761,0.6081,0.69028,0.85468,1.0185,1.1832,1.3495,1.5,1.3497,1.183,1.0185,0.85494,0.68991,0.59576,0.55197,0.50795,0.46939,0.50857,0.55141,0.59507,0.60723,0.60737,0.60736,0.60747,0.6072,0.63395,0.67594,0.71501,0.74907,0.77586,0.79453,0.80429,0.80419,0.79454,0.77596,0.74896,0.71503,0.67604,0.63383,0.60722,0.60758,0.60723,0.60733,0.6075,0.60726,0.60734,0.6075,0.60722,0.60846,0.62041,0.62672,0.62503,0.61613,0.60715,0.60739,0.60748,0.60723,0.60737,0.60752,0.60718,0.60739,0.60772,0.63204,0.67429,0.70765,0.72773,0.73736,0.73312,0.71249,0.67825,0.63225,0.6074,0.60751,0.60745,0.60702,0.60761,0.6081,0.69028,0.85468,1.0185,1.1832,1.3495,1.5,1.3497,1.183,1.0185,0.85494,0.68991,0.59576,0.55197,0.50795,0.46939,0.50857,0.55141,0.59507,0.60723,0.60737,0.60736,0.60747,0.6072,0.63395,0.67594,0.71501,0.74907,0.77586,0.79453,0.80429,0.80419,0.79454,0.77596,0.74896,0.71503,0.67604,0.63383,0.60722,0.60758,0.60723,0.60733,0.6075,0.60726,0.60734,0.6075,0.60722,0.60846,0.62041,0.62672,0.62503,0.61613,0.60715,0.60739,0.60748,0.60723,0.60737,0.60752,0.60718,0.60739,0.60772,0.63204,0.67429,0.70765,0.72773,0.73736,0.73312,0.71249,0.67825,0.63225,0.6074,0.60751,0.60745,0.60702,0.60761,0.6081,0.69028,0.85468,1.0185,1.1832,1.3495,1.5,1.3497,1.183,1.0185,0.85494,0.68991,0.59576,0.55197,0.50795,0.46939,0.50857,0.55141,0.59507,0.60723,0.60737,0.60736,0.60747,0.6072,0.63395,0.67594,0.71501,0.74907,0.77586,0.79453,0.80429,0.80419,0.79454,0.77596,0.74896,0.71503,0.67604,0.63383,0.60722,0.60758,0.60723,0.60733,0.6075,0.60726,0.60734,0.6075,0.60722,0.60846,0.62041,0.62672,0.62503,0.61613,0.60715,0.60739,0.60748,0.60723,0.60737,0.60752,0.60718,0.60739,0.60772,0.63204,0.67429,0.70765,0.72773,0.73736,0.73312,0.71249,0.67825,0.63225,0.6074,0.60751,0.60745,0.60702,0.60761,0.6081,0.69028,0.85468,1.0185,1.1832,1.3495,1.5,1.3497,1.183,1.0185,0.85494,0.68991,0.59576,0.55197,0.50795,0.46939,0.50857,0.55141,0.59507,0.60723,0.60737,0.60736,0.60747,0.6072,0.63395,0.67594,0.71501,0.74907,0.77586,0.79453,0.80429,0.80419,0.79454,0.77596,0.74896,0.71503,0.67604,0.63383,0.60722,0.60758,0.60723,0.60733,0.6075,0.60726,0.60734,0.6075,0.60722,0.60846,0.62041,0.62672,0.62503,0.61613,0.60715,0.60739,0.60748,0.60723,0.60737,0.60752,0.60718,0.60739,0.60772,0.63204,0.67429,0.70765,0.72773,0.73736,0.73312,0.71249,0.67825,0.63225,0.6074,0.60751,0.60745,0.60702,0.60761,0.6081,0.69028,0.85468,1.0185,1.1832,1.3495,1.5,1.3497,1.183,1.0185,0.85494,0.68991,0.59576,0.55197,0.50795,0.46939,0.50857,0.55141,0.59507,0.60723,0.60737,0.60736,0.60747,0.6072,0.63395,0.67594,0.71501,0.74907,0.77586,0.79453,0.80429,0.80419,0.79454,0.77596,0.74896,0.71503,0.67604,0.63383,0.60722,0.60758,0.60723,0.60733,0.6075,0.60726,0.60734,0.6075,0.60722,0.60846,0.62041,0.62672,0.62503,0.61613,0.60715,0.60739,0.60748,0.60723,0.60737,0.60752,0.60718,0.60739,0.60772,0.63204,0.67429,0.70765,0.72773,0.73736,0.73312,0.71249,0.67825,0.63225,0.6074,0.60751,0.60745,0.60702,0.60761,0.6081,0.69028,0.85468,1.0185,1.1832,1.3495,1.5,1.3497,1.183,1.0185,0.85494,0.68991,0.59576,0.55197,0.50795,0.46939,0.50857,0.55141,0.59507,0.60723,0.60737,0.60736,0.60747,0.6072,0.63395,0.67594,0.71501,0.74907,0.77586,0.79453,0.80429,0.80419,0.79454,0.77596,0.74896,0.71503,0.67604,0.63383,0.60722,0.60758,0.60723,0.60733,0.6075,0.60726,0.60734,0.6075,0.60722,0.60846,0.62041,0.62672,0.62503,0.61613,0.60715,0.60739,0.60748,0.60723,0.60737,0.60752,0.60718,0.60739,0.60772,0.63204,0.67429,0.70765,0.72773,0.73736,0.73312,0.71249,0.67825,0.63225,0.6074,0.60751,0.60745,0.60702,0.60761,0.6081,0.69028,0.85468,1.0185,1.1832,1.3495,1.5,1.3497,1.183,1.0185,0.85494,0.68991,0.59576,0.55197,0.50795,0.46939,0.50857,0.55141,0.59507,0.60723,0.60737,0.60736,0.60747,0.6072,0.63395,0.67594,0.71501,0.74907,0.77586,0.79453,0.80429,0.80419,0.79454,0.77596,0.74896,0.71503,0.67604,0.63383,0.60722,0.60758,0.60723,0.60733,0.6075,0.60726,0.60734,0.6075,0.60722,0.60846,0.62041,0.62672,0.62503,0.61613,0.60715,0.60739,0.60748,0.60723,0.60737,0.60752,0.60718,0.60739,0.60772,0.63204,0.67429,0.70765,0.72773,0.73736,0.73312,0.71249,0.67825,0.63225,0.6074,0.60751,0.60745,0.60702,0.60761,0.6081,0.69028,0.85468,1.0185,1.1832,1.3495,1.5,1.3497,1.183,1.0185,0.85494,0.68991,0.59576,0.55197,0.50795,0.46939,0.50857,0.55141,0.59507,0.60723,0.60737,0.60736,0.60747,0.6072,0.63395,0.67594,0.71501,0.74907,0.77586,0.79453,0.80429,0.80419,0.79454,0.77596,0.74896,0.71503,0.67604,0.63383,0.60722,0.60758,0.60723,0.60733,0.6075,0.60726,0.60734,0.6075,0.60722,0.60846,0.62041,0.62672,0.62503,0.61613,0.60715,0.60739,0.60748,0.60723,0.60737,0.60752,0.60718,0.60739,0.60772,0.63204,0.67429,0.70765,0.72773,0.73736,0.73312,0.71249,0.67825,0.63225,0.6074,0.60751,0.60745,0.60702,0.60761,0.6081,0.69028,0.85468,1.0185,1.1832,1.3495,1.5,1.3497,1.183,1.0185,0.85494,0.68991,0.59576,0.55197,0.50795,0.46939,0.50857,0.55141,0.59507,0.60723,0.60737,0.60736,0.60747,0.6072,0.63395,0.67594,0.71501,0.74907,0.77586,0.79453,0.80429,0.80419,0.79454,0.77596,0.74896,0.71503,0.67604,0.63383,0.60722,0.60758,0.60723,0.60733,0.6075,0.60726,0.60734,0.6075,0.60722,0.60846,0.62041,0.62672,0.62503,0.61613,0.60715,0.60739,0.60748,0.60723,0.60737,0.60752,0.60718,0.60739,0.60772,0.63204,0.67429,0.70765,0.72773,0.73736,0.73312,0.71249,0.67825,0.63225,0.6074,0.60751,0.60745,0.60702,0.60761,0.6081,0.69028,0.85468,1.0185,1.1832,1.3495,1.5,1.3497,1.183,1.0185,0.85494,0.68991,0.59576,0.55197,0.50795,0.46939,0.50857,0.55141,0.59507,0.60723,0.60737,0.60736,0.60747,0.6072,0.63395,0.67594,0.71501,0.74907,0.77586,0.79453,0.80429,0.80419,0.79454,0.77596,0.74896,0.71503,0.67604,0.63383,0.60722,0.60758,0.60723,0.60733,0.6075,0.60726,0.60734,0.6075,0.60722,0.60846,0.62041,0.62672,0.62503,0.61613,0.60715,0.60739,0.60748,0.60723,0.60737,0.60752,0.60718,0.60739,0.60772,0.63204,0.67429,0.70765,0.72773,0.73736,0.73312,0.71249,0.67825,0.63225,0.6074,0.60751,0.60745,0.60702,0.60761,0.6081,0.69028,0.85468,1.0185,1.1832,1.3495,1.5,1.3497,1.183,1.0185,0.85494,0.68991,0.59576,0.55197,0.50795,0.46939,0.50857,0.55141,0.59507,0.60723,0.60737,0.60736,0.60747,0.6072,0.63395,0.67594,0.71501,0.74907,0.77586,0.79453,0.80429,0.80419,0.79454,0.77596,0.74896,0.71503,0.67604,0.63383,0.60722,0.60758,0.60723,0.60733,0.6075,0.60726,0.60734,0.6075,0.60722,0.60846,0.62041,0.62672,0.62503,0.61613,0.60715,0.60739,0.60748,0.60723,0.60737,0.60752,0.60718,0.60739,0.60772,0.63204,0.67429,0.70765,0.72773,0.73736,0.73312,0.71249,0.67825,0.63225,0.6074,0.60751,0.60745,0.60702,0.60761,0.6081,0.69028,0.85468,1.0185,1.1832,1.3495,1.5,1.3497,1.183,1.0185,0.85494,0.68991,0.59576,0.55197,0.50795,0.46939,0.50857,0.55141,0.59507,0.60723,0.60737,0.60736,0.60747,0.6072,0.63395,0.67594,0.71501,0.74907,0.77586,0.79453,0.80429,0.80419,0.79454,0.77596,0.74896,0.71503,0.67604,0.63383,0.60722,0.60758,0.60723,0.60733,0.6075,0.60726,0.60734,0.6075,0.60722,0.60846,0.62041,0.62672,0.62503,0.61613,0.60715,0.60739,0.60748,0.60723,0.60737,0.60752,0.60718,0.60739,0.60772,0.63204,0.67429,0.70765,0.72773,0.73736,0.73312,0.71249,0.67825,0.63225,0.6074,0.60751,0.60745,0.60702,0.60761,0.6081,0.69028,0.85468,1.0185,1.1832,1.3495,1.5,1.3497,1.183,1.0185,0.85494,0.68991,0.59576,0.55197,0.50795,0.46939,0.50857,0.55141,0.59507,0.60723,0.60737,0.60736,0.60747,0.6072,0.63395,0.67594,0.71501,0.74907,0.77586,0.79453,0.80429,0.80419,0.79454,0.77596,0.74896,0.71503,0.67604,0.63383,0.60722,0.60758,0.60723,0.60733,0.6075,0.60726,0.60734,0.6075,0.60722,0.60846,0.62041,0.62672,0.62503,0.61613,0.60715,0.60739,0.60748,0.60723,0.60737,0.60752,0.60718,0.60739,0.60772,0.63204,0.67429,0.70765,0.72773,0.73736,0.73312,0.71249,0.67825,0.63225,0.6074,0.60751,0.60745,0.60702,0.60761,0.6081,0.69028,0.85468,1.0185,1.1832,1.3495,1.5,1.3497,1.183,1.0185,0.85494,0.68991,0.59576,0.55197,0.50795,0.46939,0.50857,0.55141,0.59507,0.60723,0.60737,0.60736,0.60747,0.6072,0.63395,0.67594,0.71501,0.74907,0.77586,0.79453,0.80429,0.80419,0.79454,0.77596,0.74896,0.71503,0.67604,0.63383,0.60722,0.60758,0.60723,0.60733,0.6075,0.60726,0.60734,0.6075,0.60722,0.60846,0.62041,0.62672,0.62503,0.61613,0.60715,0.60739,0.60748,0.60723,0.60737,0.60752,0.60718,0.60739,0.60772,0.63204,0.67429,0.70765,0.72773,0.73736,0.73312,0.71249,0.67825,0.63225,0.6074,0.60751,0.60745,0.60702,0.60761,0.6081,0.69028,0.85468,1.0185,1.1832,1.3495,1.5,1.3497,1.183,1.0185,0.85494,0.68991,0.59576,0.55197,0.50795,0.46939,0.50857,0.55141,0.59507,0.60723,0.60737,0.60736,0.60747,0.6072,0.63395,0.67594,0.71501,0.74907,0.77586,0.79453,0.80429,0.80419,0.79454,0.77596,0.74896,0.71503,0.67604,0.63383,0.60722,0.60758,0.60723,0.60733,0.6075,0.60726,0.60734,0.6075,0.60722,0.60846,0.62041,0.62672,0.62503,0.61613,0.60715,0.60739,0.60748,0.60723,0.60737,0.60752,0.60718,0.60739,0.60772,0.63204,0.67429,0.70765,0.72773,0.73736,0.73312,0.71249,0.67825,0.63225,0.6074,0.60751,0.60745,0.60702,0.60761,0.6081,0.69028,0.85468,1.0185,1.1832,1.3495,1.5,1.3497,1.183,1.0185,0.85494,0.68991,0.59576,0.55197,0.50795,0.46939,0.50857,0.55141,0.59507,0.60723,0.60737,0.60736,0.60747,0.6072,0.63395,0.67594,0.71501,0.74907,0.77586,0.79453,0.80429,0.80419,0.79454,0.77596,0.74896,0.71503,0.67604,0.63383,0.60722,0.60758,0.60723,0.60733,0.6075,0.60726,0.60734,0.6075,0.60722,0.60846,0.62041,0.62672,0.62503,0.61613,0.60715,0.60739,0.60748,0.60723,0.60737,0.60752,0.60718,0.60739,0.60772,0.63204,0.67429,0.70765,0.72773,0.73736,0.73312,0.71249,0.67825,0.63225,0.6074,0.60751,0.60745,0.60702,0.60761,0.6081,0.69028,0.85468,1.0185,1.1832,1.3495,1.5,1.3497,1.183,1.0185,0.85494,0.68991,0.59576,0.55197,0.50795,0.46939,0.50857,0.55141,0.59507,0.60723,0.60737,0.60736,0.60747,0.6072,0.63395,0.67594,0.71501,0.74907,0.77586,0.79453,0.80429,0.80419,0.79454,0.77596,0.74896,0.71503,0.67604,0.63383,0.60722,0.60758,0.60723,0.60733,0.6075,0.60726,0.60734,0.6075,0.60722,0.60846,0.62041,0.62672,0.62503,0.61613,0.60715,0.60739,0.60748,0.60723,0.60737,0.60752,0.60718,0.60739,0.60772,0.63204,0.67429,0.70765,0.72773,0.73736,0.73312,0.71249,0.67825,0.63225,0.6074,0.60751,0.60745,0.60702,0.60761,0.6081,0.69028,0.85468,1.0185,1.1832,1.3495,1.5,1.3497,1.183,1.0185,0.85494,0.68991,0.59576,0.55197,0.50795,0.46939,0.50857,0.55141,0.59507,0.60723,0.60737,0.60736,0.60747,0.6072,0.63395,0.67594,0.71501,0.74907,0.77586,0.79453,0.80429,0.80419,0.79454,0.77596,0.74896,0.71503,0.67604,0.63383,0.60722,0.60758,0.60723,0.60733,0.6075,0.60726,0.60734,0.6075,0.60722,0.60846,0.62041,0.62672,0.62503,0.61613,0.60715,0.60739,0.60748,0.60723,0.60737,0.60752,0.60718,0.60739,0.60772,0.63204,0.67429,0.70765,0.72773,0.73736,0.73312,0.71249,0.67825,0.63225,0.6074,0.60751,0.60745,0.60702,0.60761,0.6081,0.69028,0.85468,1.0185,1.1832,1.3495,1.5,1.3497,1.183,1.0185,0.85494,0.68991,0.59576,0.55197,0.50795,0.46939,0.50857,0.55141,0.59507,0.60723,0.60737,0.60736,0.60747,0.6072,0.63395,0.67594,0.71501,0.74907,0.77586,0.79453,0.80429,0.80419,0.79454,0.77596,0.74896,0.71503,0.67604,0.63383,0.60722,0.60758,0.60723,0.60733,0.6075,0.60726,0.60734,0.6075,0.60722,0.60846,0.62041,0.62672,0.62503,0.61613,0.60715,0.60739,0.60748,0.60723,0.60737,0.60752,0.60718,0.60739,0.60772,0.63204,0.67429,0.70765,0.72773,0.73736,0.73312,0.71249,0.67825,0.63225,0.6074,0.60751,0.60745,0.60702,0.60761,0.6081,0.69028,0.85468,1.0185,1.1832,1.3495,1.5,1.3497,1.183,1.0185,0.85494,0.68991,0.59576,0.55197,0.50795,0.46939,0.50857,0.55141,0.59507,0.60723,0.60737,0.60736,0.60747,0.6072,0.63395,0.67594,0.71501,0.74907,0.77586,0.79453,0.80429,0.80419,0.79454,0.77596,0.74896,0.71503,0.67604,0.63383,0.60722,0.60758,0.60723,0.60733,0.6075,0.60726,0.60734,0.6075,0.60722,0.60846,0.62041,0.62672,0.62503,0.61613,0.60715,0.60739,0.60748,0.60723,0.60737,0.60752,0.60718,0.60739,0.60772,0.63204,0.67429,0.70765,0.72773,0.73736,0.73312,0.71249,0.67825,0.63225,0.6074,0.60751,0.60745,0.60702,0.60761,0.6081,0.69028,0.85468,1.0185,1.1832,1.3495,1.5,1.3497,1.183,1.0185,0.85494,0.68991,0.59576,0.55197,0.50795,0.46939,0.50857,0.55141,0.59507,0.60723,0.60737,0.60736,0.60747,0.6072,0.63395,0.67594,0.71501,0.74907,0.77586,0.79453,0.80429,0.80419,0.79454,0.77596,0.74896,0.71503,0.67604,0.63383,0.60722,0.60758,0.60723,0.60733,0.6075,0.60726,0.60734,0.6075,0.60722,0.60846,0.62041,0.62672,0.62503,0.61613,0.60715,0.60739,0.60748,0.60723,0.60737,0.60752,0.60718,0.60739,0.60772,0.63204,0.67429,0.70765,0.72773,0.73736,0.73312,0.71249,0.67825,0.63225,0.6074,0.60751,0.60745,0.60702,0.60761,0.6081,0.69028,0.85468,1.0185,1.1832,1.3495,1.5,1.3497,1.183,1.0185,0.85494,0.68991,0.59576,0.55197,0.50795,0.46939,0.50857,0.55141,0.59507,0.60723,0.60737,0.60736,0.60747,0.6072,0.63395,0.67594,0.71501,0.74907,0.77586,0.79453,0.80429,0.80419,0.79454,0.77596,0.74896,0.71503,0.67604,0.63383,0.60722,0.60758,0.60723,0.60733,0.6075,0.60726,0.60734,0.6075,0.60722,0.60846,0.62041,0.62672,0.62503,0.61613,0.60715,0.60739,0.60748,0.60723,0.60737,0.60752,0.60718,0.60739,0.60772,0.63204,0.67429,0.70765,0.72773,0.73736,0.73312,0.71249,0.67825,0.63225,0.6074,0.60751,0.60745,0.60702,0.60761,0.6081,0.69028,0.85468,1.0185,1.1832,1.3495,1.5,1.3497,1.183,1.0185,0.85494,0.68991,0.59576,0.55197,0.50795,0.46939,0.50857,0.55141,0.59507,0.60723,0.60737,0.60736,0.60747,0.6072,0.63395,0.67594,0.71501,0.74907,0.77586,0.79453,0.80429,0.80419,0.79454,0.77596,0.74896,0.71503,0.67604,0.63383,0.60722,0.60758,0.60723,0.60733,0.6075,0.60726,0.60734,0.6075,0.60722,0.60846,0.62041,0.62672,0.62503,0.61613,0.60715,0.60739,0.60748,0.60723,0.60737,0.60752,0.60718,0.60739,0.60772,0.63204,0.67429,0.70765,0.72773,0.73736,0.73312,0.71249,0.67825,0.63225,0.6074,0.60751,0.60745,0.60702,0.60761,0.6081,0.69028,0.85468,1.0185,1.1832,1.3495,1.5,1.3497,1.183,1.0185,0.85494,0.68991,0.59576,0.55197,0.50795,0.46939,0.50857,0.55141,0.59507,0.60723,0.60737,0.60736,0.60747,0.6072,0.63395,0.67594,0.71501,0.74907,0.77586,0.79453,0.80429,0.80419,0.79454,0.77596,0.74896,0.71503,0.67604,0.63383,0.60722,0.60758,0.60723,0.60733,0.6075,0.60726,0.60734,0.6075,0.60722,0.60846,0.62041,0.62672,0.62503,0.61613,0.60715,0.60739,0.60748,0.60723,0.60737,0.60752,0.60718,0.60739,0.60772,0.63204,0.67429,0.70765,0.72773,0.73736,0.73312,0.71249,0.67825,0.63225,0.6074,0.60751,0.60745,0.60702,0.60761,0.6081,0.69028,0.85468,1.0185,1.1832,1.3495,1.5,1.3497,1.183,1.0185,0.85494,0.68991,0.59576,0.55197,0.50795,0.46939,0.50857,0.55141,0.59507,0.60723,0.60737,0.60736,0.60747,0.6072,0.63395,0.67594,0.71501,0.74907,0.77586,0.79453,0.80429,0.80419,0.79454,0.77596,0.74896,0.71503,0.67604,0.63383,0.60722,0.60758,0.60723,0.60733,0.6075,0.60726,0.60734,0.6075,0.60722,0.60846,0.62041,0.62672,0.62503,0.61613,0.60715,0.60739,0.60748,0.60723,0.60737,0.60752,0.60718,0.60739,0.60772,0.63204,0.67429,0.70765,0.72773,0.73736,0.73312,0.71249,0.67825,0.63225,0.6074,0.60751,0.60745,0.60702,0.60761,0.6081,0.69028,0.85468,1.0185,1.1832,1.3495,1.5,1.3497,1.183,1.0185,0.85494,0.68991,0.59576,0.55197,0.50795,0.46939,0.50857,0.55141,0.59507,0.60723,0.60737,0.60736,0.60747,0.6072,0.63395,0.67594,0.71501,0.74907,0.77586,0.79453,0.80429,0.80419,0.79454,0.77596,0.74896,0.71503,0.67604,0.63383,0.60722,0.60758,0.60723,0.60733,0.6075,0.60726,0.60734,0.6075,0.60722,0.60846,0.62041,0.62672,0.62503,0.61613,0.60715,0.60739,0.60748,0.60723,0.60737,0.60752,0.60718,0.60739,0.60772,0.63204,0.67429,0.70765,0.72773,0.73736,0.73312,0.71249,0.67825,0.63225,0.6074,0.60751,0.60745,0.60702,0.60761,0.6081,0.69028,0.85468,1.0185,1.1832,1.3495,1.5,1.3497,1.183,1.0185,0.85494,0.68991,0.59576,0.55197,0.50795,0.46939,0.50857,0.55141,0.59507,0.60723,0.60737,0.60736,0.60747,0.6072,0.63395,0.67594,0.71501,0.74907,0.77586,0.79453,0.80429,0.80419,0.79454,0.77596,0.74896,0.71503,0.67604,0.63383,0.60722,0.60758,0.60723,0.60733,0.6075,0.60726,0.60734,0.6075,0.60722,0.60846,0.62041,0.62672,0.62503,0.61613,0.60715,0.60739,0.60748,0.60723,0.60737,0.60752,0.60718,0.60739,0.60772,0.63204,0.67429,0.70765,0.72773,0.73736,0.73312,0.71249,0.67825,0.63225,0.6074,0.60751,0.60745,0.60702,0.60761,0.6081,0.69028,0.85468,1.0185,1.1832,1.3495,1.5,1.3497,1.183,1.0185,0.85494,0.68991,0.59576,0.55197,0.50795,0.46939,0.50857,0.55141,0.59507,0.60723,0.60737,0.60736,0.60747,0.6072,0.63395,0.67594,0.71501,0.74907,0.77586,0.79453,0.80429,0.80419,0.79454,0.77596,0.74896,0.71503,0.67604,0.63383,0.60722,0.60758,0.60723,0.60733,0.6075,0.60726,0.60734,0.6075,0.60722,0.60846,0.62041,0.62672,0.62503,0.61613,0.60715,0.60739,0.60748,0.60723,0.60737,0.60752,0.60718,0.60739,0.60772,0.63204,0.67429,0.70765,0.72773,0.73736,0.73312,0.71249,0.67825,0.63225,0.6074,0.60751,0.60745,0.60702,0.60761,0.6081,0.69028,0.85468,1.0185,1.1832,1.3495,1.5,1.3497,1.183,1.0185,0.85494,0.68991,0.59576,0.55197,0.50795,0.46939,0.50857,0.55141,0.59507,0.60723,0.60737,0.60736,0.60747,0.6072,0.63395,0.67594,0.71501,0.74907,0.77586,0.79453,0.80429,0.80419,0.79454,0.77596,0.74896,0.71503,0.67604,0.63383,0.60722,0.60758,0.60723,0.60733,0.6075,0.60726,0.60734,0.6075,0.60722,0.60846,0.62041,0.62672,0.62503,0.61613,0.60715,0.60739,0.60748,0.60723,0.60737,0.60752,0.60718,0.60739,0.60772,0.63204,0.67429,0.70765,0.72773,0.73736,0.73312,0.71249,0.67825,0.63225,0.6074,0.60751,0.60745,0.60702,0.60761,0.6081,0.69028,0.85468,1.0185,1.1832,1.3495,1.5,1.3497,1.183,1.0185,0.85494,0.68991,0.59576,0.55197,0.50795,0.46939,0.50857,0.55141,0.59507,0.60723,0.60737,0.60736,0.60747,0.6072,0.63395,0.67594,0.71501,0.74907,0.77586,0.79453,0.80429,0.80419,0.79454,0.77596,0.74896,0.71503,0.67604,0.63383,0.60722,0.60758,0.60723,0.60733,0.6075,0.60726,0.60734,0.6075,0.60722,0.60846,0.62041,0.62672,0.62503,0.61613,0.60715,0.60739,0.60748,0.60723,0.60737,0.60752,0.60718,0.60739,0.60772,0.63204,0.67429,0.70765,0.72773,0.73736,0.73312,0.71249,0.67825,0.63225,0.6074,0.60751,0.60745,0.60702,0.60761,0.6081,0.69028,0.85468,1.0185,1.1832,1.3495,1.5,1.3497,1.183,1.0185,0.85494,0.68991,0.59576,0.55197,0.50795,0.46939,0.50857,0.55141,0.59507,0.60723,0.60737,0.60736,0.60747,0.6072,0.63395,0.67594,0.71501,0.74907,0.77586,0.79453,0.80429,0.80419,0.79454,0.77596,0.74896,0.71503,0.67604,0.63383,0.60722,0.60758,0.60723,0.60733,0.6075,0.60726,0.60734,0.6075,0.60722,0.60846,0.62041,0.62672,0.62503,0.61613,0.60715,0.60739,0.60748,0.60723,0.60737,0.60752,0.60718,0.60739,0.60772,0.63204,0.67429,0.70765,0.72773,0.73736,0.73312,0.71249,0.67825,0.63225,0.6074,0.60751,0.60745,0.60702,0.60761,0.6081,0.69028,0.85468,1.0185,1.1832,1.3495,1.5,1.3497,1.183,1.0185,0.85494,0.68991,0.59576,0.55197,0.50795,0.46939,0.50857,0.55141,0.59507,0.60723,0.60737,0.60736,0.60747,0.6072,0.63395,0.67594,0.71501,0.74907,0.77586,0.79453,0.80429,0.80419,0.79454,0.77596,0.74896,0.71503,0.67604,0.63383,0.60722,0.60758,0.60723,0.60733,0.6075,0.60726,0.60734,0.6075,0.60722,0.60846,0.62041,0.62672,0.62503,0.61613,0.60715,0.60739,0.60748,0.60723,0.60737,0.60752,0.60718,0.60739,0.60772,0.63204,0.67429,0.70765,0.72773,0.73736,0.73312,0.71249,0.67825,0.63225,0.6074,0.60751,0.60745,0.60702,0.60761,0.6081,0.69028,0.85468,1.0185,1.1832,1.3495,1.5,1.3497,1.183,1.0185,0.85494,0.68991,0.59576,0.55197,0.50795,0.46939,0.50857,0.55141,0.59507,0.60723,0.60737,0.60736,0.60747,0.6072,0.63395,0.67594,0.71501,0.74907,0.77586,0.79453,0.80429,0.80419,0.79454,0.77596,0.74896,0.71503,0.67604,0.63383,0.60722,0.60758,0.60723,0.60733,0.6075,0.60726,0.60734,0.6075,0.60722,0.60846,0.62041,0.62672,0.62503,0.61613,0.60715,0.60739,0.60748,0.60723,0.60737,0.60752,0.60718,0.60739,0.60772,0.63204,0.67429,0.70765,0.72773,0.73736,0.73312,0.71249,0.67825,0.63225,0.6074,0.60751,0.60745,0.60702,0.60761,0.6081,0.69028,0.85468,1.0185,1.1832,1.3495,1.5,1.3497,1.183,1.0185,0.85494,0.68991,0.59576,0.55197,0.50795,0.46939,0.50857,0.55141,0.59507,0.60723,0.60737,0.60736,0.60747,0.6072,0.63395,0.67594,0.71501,0.74907,0.77586,0.79453,0.80429,0.80419,0.79454,0.77596,0.74896,0.71503,0.67604,0.63383,0.60722,0.60758,0.60723,0.60733,0.6075,0.60726,0.60734,0.6075,0.60722,0.60846,0.62041,0.62672,0.62503,0.61613,0.60715,0.60739,0.60748,0.60723,0.60737,0.60752,0.60718,0.60739,0.60772,0.63204,0.67429,0.70765,0.72773,0.73736,0.73312,0.71249,0.67825,0.63225,0.6074,0.60751,0.60745,0.60702,0.60761,0.6081,0.69028,0.85468,1.0185,1.1832,1.3495,1.5,1.3497,1.183,1.0185,0.85494,0.68991,0.59576,0.55197,0.50795,0.46939,0.50857,0.55141,0.59507,0.60723,0.60737,0.60736,0.60747,0.6072,0.63395,0.67594,0.71501,0.74907,0.77586,0.79453,0.80429,0.80419,0.79454,0.77596,0.74896,0.71503,0.67604,0.63383,0.60722,0.60758,0.60723,0.60733,0.6075,0.60726,0.60734,0.6075,0.60722,0.60846,0.62041,0.62672,0.62503,0.61613,0.60715,0.60739,0.60748,0.60723,0.60737,0.60752,0.60718,0.60739,0.60772,0.63204,0.67429,0.70765,0.72773,0.73736,0.73312,0.71249,0.67825,0.63225,0.6074,0.60751,0.60745,0.60702,0.60761,0.6081,0.69028,0.85468,1.0185,1.1832,1.3495,1.5,1.3497,1.183,1.0185,0.85494,0.68991,0.59576,0.55197,0.50795,0.46939,0.50857,0.55141,0.59507,0.60723,0.60737,0.60736,0.60747,0.6072,0.63395,0.67594,0.71501,0.74907,0.77586,0.79453,0.80429,0.80419,0.79454,0.77596,0.74896,0.71503,0.67604,0.63383,0.60722,0.60758,0.60723,0.60733,0.6075,0.60726,0.60734,0.6075,0.60722,0.60846,0.62041,0.62672,0.62503,0.61613,0.60715,0.60739,0.60748,0.60723,0.60737,0.60752,0.60718,0.60739,0.60772,0.63204,0.67429,0.70765,0.72773,0.73736,0.73312,0.71249,0.67825,0.63225,0.6074,0.60751,0.60745,0.60702,0.60761,0.6081,0.69028,0.85468,1.0185,1.1832,1.3495,1.5,1.3497,1.183,1.0185,0.85494,0.68991,0.59576,0.55197,0.50795,0.46939,0.50857,0.55141,0.59507,0.60723,0.60737,0.60736,0.60747,0.6072,0.63395,0.67594,0.71501,0.74907,0.77586,0.79453,0.80429,0.80419,0.79454,0.77596,0.74896,0.71503,0.67604,0.63383,0.60722,0.60758,0.60723,0.60733,0.6075,0.60726,0.60734,0.6075,0.60722,0.60846,0.62041,0.62672,0.62503,0.61613,0.60715,0.60739,0.60748,0.60723,0.60737,0.60752,0.60718,0.60739,0.60772,0.63204,0.67429,0.70765,0.72773,0.73736,0.73312,0.71249,0.67825,0.63225,0.6074,0.60751,0.60745,0.60702,0.60761,0.6081,0.69028,0.85468,1.0185,1.1832,1.3495,1.5,1.3497,1.183,1.0185,0.85494,0.68991,0.59576,0.55197,0.50795,0.46939,0.50857,0.55141,0.59507,0.60723,0.60737,0.60736,0.60747,0.6072,0.63395,0.67594,0.71501,0.74907,0.77586,0.79453,0.80429,0.80419,0.79454,0.77596,0.74896,0.71503,0.67604,0.63383,0.60722,0.60758,0.60723,0.60733,0.6075,0.60726,0.60734,0.6075,0.60722,0.60846,0.62041,0.62672,0.62503,0.61613,0.60715,0.60739,0.60748,0.60723,0.60737,0.60752,0.60718,0.60739,0.60772,0.63204,0.67429,0.70765,0.72773,0.73736,0.73312,0.71249,0.67825,0.63225,0.6074,0.60751,0.60745,0.60702,0.60761,0.6081,0.69028,0.85468,1.0185,1.1832,1.3495,1.5,1.3497,1.183,1.0185,0.85494,0.68991,0.59576,0.55197,0.50795,0.46939,0.50857,0.55141,0.59507,0.60723,0.60737,0.60736,0.60747,0.6072,0.63395,0.67594,0.71501,0.74907,0.77586,0.79453,0.80429,0.80419,0.79454,0.77596,0.74896,0.71503,0.67604,0.63383,0.60722,0.60758,0.60723,0.60733,0.6075,0.60726,0.60734,0.6075,0.60722,0.60846,0.62041,0.62672,0.62503,0.61613,0.60715,0.60739,0.60748,0.60723,0.60737,0.60752,0.60718,0.60739,0.60772,0.63204,0.67429,0.70765,0.72773,0.73736,0.73312,0.71249,0.67825,0.63225,0.6074,0.60751,0.60745,0.60702,0.60761,0.6081,0.69028,0.85468,1.0185,1.1832,1.3495,1.5,1.3497,1.183,1.0185,0.85494,0.68991,0.59576,0.55197,0.50795,0.46939,0.50857,0.55141,0.59507,0.60723,0.60737,0.60736,0.60747,0.6072,0.63395,0.67594,0.71501,0.74907,0.77586,0.79453,0.80429,0.80419,0.79454,0.77596,0.74896,0.71503,0.67604,0.63383,0.60722,0.60758,0.60723,0.60733,0.6075,0.60726,0.60734,0.6075,0.60722,0.60846,0.62041,0.62672,0.62503,0.61613,0.60715,0.60739,0.60748,0.60723,0.60737,0.60752,0.60718,0.60739,0.60772,0.63204,0.67429,0.70765,0.72773,0.73736,0.73312,0.71249,0.67825,0.63225,0.6074,0.60751,0.60745,0.60702,0.60761,0.6081,0.69028,0.85468,1.0185,1.1832,1.3495,1.5,1.3497,1.183,1.0185,0.85494,0.68991,0.59576,0.55197,0.50795,0.46939,0.50857,0.55141,0.59507,0.60723,0.60737,0.60736,0.60747,0.6072,0.63395,0.67594,0.71501,0.74907,0.77586,0.79453,0.80429,0.80419,0.79454,0.77596,0.74896,0.71503,0.67604,0.63383,0.60722,0.60758,0.60723,0.60733,0.6075,0.60726,0.60734,0.6075,0.60722,0.60846,0.62041,0.62672,0.62503,0.61613,0.60715,0.60739,0.60748,0.60723,0.60737,0.60752,0.60718,0.60739,0.60772,0.63204,0.67429,0.70765,0.72773,0.73736,0.73312,0.71249,0.67825,0.63225,0.6074,0.60751,0.60745,0.60702,0.60761,0.6081,0.69028,0.85468,1.0185,1.1832,1.3495,1.5,1.3497,1.183,1.0185,0.85494,0.68991,0.59576,0.55197,0.50795,0.46939,0.50857,0.55141,0.59507,0.60723,0.60737,0.60736,0.60747,0.6072,0.63395,0.67594,0.71501,0.74907,0.77586,0.79453,0.80429,0.80419,0.79454,0.77596,0.74896,0.71503,0.67604,0.63383,0.60722,0.60758,0.60723,0.60733,0.6075,0.60726,0.60734,0.6075,0.60722,0.60846,0.62041,0.62672,0.62503,0.61613,0.60715,0.60739,0.60748,0.60723,0.60737,0.60752,0.60718,0.60739,0.60772,0.63204,0.67429,0.70765,0.72773,0.73736,0.73312,0.71249,0.67825,0.63225,0.6074,0.60751,0.60745,0.60702,0.60761,0.6081,0.69028,0.85468,1.0185,1.1832,1.3495,1.5,1.3497,1.183,1.0185,0.85494,0.68991,0.59576,0.55197,0.50795,0.46939,0.50857,0.55141,0.59507,0.60723,0.60737,0.60736,0.60747,0.6072,0.63395,0.67594,0.71501,0.74907,0.77586,0.79453,0.80429,0.80419,0.79454,0.77596,0.74896,0.71503,0.67604,0.63383,0.60722,0.60758,0.60723,0.60733,0.6075,0.60726,0.60734,0.6075,0.60722,0.60846,0.62041,0.62672,0.62503,0.61613,0.60715,0.60739,0.60748,0.60723,0.60737,0.60752,0.60718,0.60739,0.60772,0.63204,0.67429,0.70765,0.72773,0.73736,0.73312,0.71249,0.67825,0.63225,0.6074,0.60751,0.60745,0.60702,0.60761,0.6081,0.69028,0.85468,1.0185,1.1832,1.3495,1.5,1.3497,1.183,1.0185,0.85494,0.68991,0.59576,0.55197,0.50795,0.46939,0.50857,0.55141,0.59507,0.60723,0.60737,0.60736,0.60747,0.6072,0.63395,0.67594,0.71501,0.74907,0.77586,0.79453,0.80429,0.80419,0.79454,0.77596,0.74896,0.71503,0.67604,0.63383,0.60722,0.60758,0.60723,0.60733,0.6075,0.60726,0.60734,0.6075,0.60722,0.60846,0.62041,0.62672,0.62503,0.61613,0.60715,0.60739,0.60748,0.60723,0.60737,0.60752,0.60718,0.60739,0.60772,0.63204,0.67429,0.70765,0.72773,0.73736,0.73312,0.71249,0.67825,0.63225,0.6074,0.60751,0.60745,0.60702,0.60761,0.6081,0.69028,0.85468,1.0185,1.1832,1.3495,1.5,1.3497,1.183,1.0185,0.85494,0.68991,0.59576,0.55197,0.50795,0.46939,0.50857,0.55141,0.59507,0.60723,0.60737,0.60736,0.60747,0.6072,0.63395,0.67594,0.71501,0.74907,0.77586,0.79453,0.80429,0.80419,0.79454,0.77596,0.74896,0.71503,0.67604,0.63383,0.60722,0.60758,0.60723,0.60733,0.6075,0.60726,0.60734,0.6075,0.60722,0.60846,0.62041,0.62672,0.62503,0.61613,0.60715,0.60739,0.60748,0.60723,0.60737,0.60752,0.60718,0.60739,0.60772,0.63204,0.67429,0.70765,0.72773,0.73736,0.73312,0.71249,0.67825,0.63225,0.6074,0.60751,0.60745,0.60702,0.60761,0.6081,0.69028,0.85468,1.0185,1.1832,1.3495,1.5,1.3497,1.183,1.0185,0.85494,0.68991,0.59576,0.55197,0.50795,0.46939,0.50857,0.55141,0.59507,0.60723,0.60737,0.60736,0.60747,0.6072,0.63395,0.67594,0.71501,0.74907,0.77586,0.79453,0.80429,0.80419,0.79454,0.77596,0.74896,0.71503,0.67604,0.63383,0.60722,0.60758,0.60723,0.60733,0.6075,0.60726,0.60734,0.6075,0.60722,0.60846,0.62041,0.62672,0.62503,0.61613,0.60715,0.60739,0.60748,0.60723,0.60737,0.60752,0.60718,0.60739,0.60772,0.63204,0.67429,0.70765,0.72773,0.73736,0.73312,0.71249,0.67825,0.63225,0.6074,0.60751,0.60745,0.60702,0.60761,0.6081,0.69028,0.85468,1.0185,1.1832,1.3495,1.5,1.3497,1.183,1.0185,0.85494,0.68991,0.59576,0.55197,0.50795,0.46939,0.50857,0.55141,0.59507,0.60723,0.60737,0.60736,0.60747,0.6072,0.63395,0.67594,0.71501,0.74907,0.77586,0.79453,0.80429,0.80419,0.79454,0.77596,0.74896,0.71503,0.67604,0.63383,0.60722,0.60758,0.60723,0.60733,0.6075,0.60726,0.60734,0.6075,0.60722,0.60846,0.62041,0.62672,0.62503,0.61613,0.60715,0.60739,0.60748,0.60723,0.60737,0.60752,0.60718,0.60739,0.60772,0.63204,0.67429,0.70765,0.72773,0.73736,0.73312,0.71249,0.67825,0.63225,0.6074,0.60751,0.60745,0.60702,0.60761,0.6081,0.69028,0.85468,1.0185,1.1832,1.3495,1.5,1.3497,1.183,1.0185,0.85494,0.68991,0.59576,0.55197,0.50795,0.46939,0.50857,0.55141,0.59507,0.60723,0.60737,0.60736,0.60747,0.6072,0.63395,0.67594,0.71501,0.74907,0.77586,0.79453,0.80429,0.80419,0.79454,0.77596,0.74896,0.71503,0.67604,0.63383,0.60722,0.60758,0.60723,0.60733,0.6075,0.60726,0.60734,0.6075,0.60722,0.60846,0.62041,0.62672,0.62503,0.61613,0.60715,0.60739,0.60748,0.60723,0.60737,0.60752,0.60718,0.60739,0.60772,0.63204,0.67429,0.70765,0.72773,0.73736,0.73312,0.71249,0.67825,0.63225,0.6074,0.60751,0.60745,0.60702,0.60761,0.6081,0.69028,0.85468,1.0185,1.1832,1.3495,1.5,1.3497,1.183,1.0185,0.85494,0.68991,0.59576,0.55197,0.50795,0.46939,0.50857,0.55141,0.59507,0.60723,0.60737,0.60736,0.60747,0.6072,0.63395,0.67594,0.71501,0.74907,0.77586,0.79453,0.80429,0.80419,0.79454,0.77596,0.74896,0.71503,0.67604,0.63383,0.60722,0.60758,0.60723,0.60733,0.6075,0.60726,0.60734,0.6075,0.60722,0.60846,0.62041,0.62672,0.62503,0.61613,0.60715,0.60739,0.60748,0.60723,0.60737,0.60752,0.60718,0.60739,0.60772,0.63204,0.67429,0.70765,0.72773,0.73736,0.73312,0.71249,0.67825,0.63225,0.6074,0.60751,0.60745,0.60702,0.60761,0.6081,0.69028,0.85468,1.0185,1.1832,1.3495,1.5,1.3497,1.183,1.0185,0.85494,0.68991,0.59576,0.55197,0.50795,0.46939,0.50857,0.55141,0.59507,0.60723,0.60737,0.60736,0.60747,0.6072,0.63395,0.67594,0.71501,0.74907,0.77586,0.79453,0.80429,0.80419,0.79454,0.77596,0.74896,0.71503,0.67604,0.63383,0.60722,0.60758,0.60723,0.60733,0.6075,0.60726,0.60734,0.6075,0.60722,0.60846,0.62041,0.62672,0.62503,0.61613,0.60715,0.60739,0.60748,0.60723,0.60737,0.60752,0.60718,0.60739,0.60772,0.63204,0.67429,0.70765,0.72773,0.73736,0.73312,0.71249,0.67825,0.63225,0.6074,0.60751,0.60745,0.60702,0.60761,0.6081,0.69028,0.85468,1.0185,1.1832,1.3495,1.5,1.3497,1.183,1.0185,0.85494,0.68991,0.59576,0.55197,0.50795,0.46939,0.50857,0.55141,0.59507,0.60723,0.60737,0.60736,0.60747,0.6072,0.63395,0.67594,0.71501,0.74907,0.77586,0.79453,0.80429,0.80419,0.79454,0.77596,0.74896,0.71503,0.67604,0.63383,0.60722,0.60758,0.60723,0.60733,0.6075,0.60726,0.60734,0.6075,0.60722,0.60846,0.62041,0.62672,0.62503,0.61613,0.60715,0.60739,0.60748,0.60723,0.60737,0.60752,0.60718,0.60739,0.60772,0.63204,0.67429,0.70765,0.72773,0.73736,0.73312,0.71249,0.67825,0.63225,0.6074,0.60751,0.60745,0.60702,0.60761,0.6081,0.69028,0.85468,1.0185,1.1832,1.3495,1.5,1.3497,1.183,1.0185,0.85494,0.68991,0.59576,0.55197,0.50795,0.46939,0.50857,0.55141,0.59507,0.60723,0.60737,0.60736,0.60747,0.6072,0.63395,0.67594,0.71501,0.74907,0.77586,0.79453,0.80429,0.80419,0.79454,0.77596,0.74896,0.71503,0.67604,0.63383,0.60722,0.60758,0.60723,0.60733,0.6075,0.60726,0.60734,0.6075,0.60722,0.60846,0.62041,0.62672,0.62503,0.61613,0.60715,0.60739,0.60748,0.60723,0.60737,0.60752,0.60718,0.60739,0.60772,0.63204,0.67429,0.70765,0.72773,0.73736,0.73312,0.71249,0.67825,0.63225,0.6074,0.60751,0.60745,0.60702,0.60761,0.6081,0.69028,0.85468,1.0185,1.1832,1.3495,1.5,1.3497,1.183,1.0185,0.85494,0.68991,0.59576,0.55197,0.50795,0.46939,0.50857,0.55141,0.59507,0.60723,0.60737,0.60736,0.60747,0.6072,0.63395,0.67594,0.71501,0.74907,0.77586,0.79453,0.80429,0.80419,0.79454,0.77596,0.74896,0.71503,0.67604,0.63383,0.60722,0.60758,0.60723,0.60733,0.6075,0.60726,0.60734,0.6075,0.60722,0.60846,0.62041,0.62672,0.62503,0.61613,0.60715,0.60739,0.60748,0.60723,0.60737,0.60752,0.60718,0.60739,0.60772,0.63204,0.67429,0.70765,0.72773,0.73736,0.73312,0.71249,0.67825,0.63225,0.6074,0.60751,0.60745,0.60702,0.60761,0.6081,0.69028,0.85468,1.0185,1.1832,1.3495,1.5,1.3497,1.183,1.0185,0.85494,0.68991,0.59576,0.55197,0.50795,0.46939,0.50857,0.55141,0.59507,0.60723,0.60737,0.60736,0.60747,0.6072,0.63395,0.67594,0.71501,0.74907,0.77586,0.79453,0.80429,0.80419,0.79454,0.77596,0.74896,0.71503,0.67604,0.63383,0.60722,0.60758,0.60723,0.60733,0.6075,0.60726,0.60734,0.6075,0.60722,0.60846,0.62041,0.62672,0.62503,0.61613,0.60715,0.60739,0.60748,0.60723,0.60737,0.60752,0.60718,0.60739,0.60772,0.63204,0.67429,0.70765,0.72773,0.73736,0.73312,0.71249,0.67825,0.63225,0.6074,0.60751,0.60745,0.60702,0.60761,0.6081,0.69028,0.85468,1.0185,1.1832,1.3495,1.5,1.3497,1.183,1.0185,0.85494,0.68991,0.59576,0.55197,0.50795,0.46939,0.50857,0.55141,0.59507,0.60723,0.60737,0.60736,0.60747,0.6072,0.63395,0.67594,0.71501,0.74907,0.77586,0.79453,0.80429,0.80419,0.79454,0.77596,0.74896,0.71503,0.67604,0.63383,0.60722,0.60758,0.60723,0.60733,0.6075,0.60726,0.60734,0.6075,0.60722,0.60846,0.62041,0.62672,0.62503,0.61613,0.60715,0.60739,0.60748,0.60723,0.60737,0.60752,0.60718
