0.4338,0.46319,0.51424,0.55427,0.5785,0.58993,0.58483,0.56047,0.51902,0.46329,0.4338,0.43408,0.43409,0.43406,0.43393,0.43296,0.53166,0.73004,0.92755,1.1249,1.3218,1.5,1.3217,1.1248,0.92748,0.7299,0.53134,0.41853,0.36753,0.31629,0.26988,0.31634,0.36772,0.41969,0.43378,0.43394,0.43397,0.43391,0.4334,0.46572,0.51661,0.56348,0.60405,0.63636,0.65881,0.67032,0.67032,0.65882,0.63637,0.60407,0.5635,0.51664,0.46576,0.43345,0.43398,0.43408,0.43412,0.43414,0.43416,0.43417,0.4342,0.43426,0.43569,0.44969,0.45746,0.45546,0.44456,0.43387,0.43406,0.4341,0.43412,0.43413,0.43413,0.43414,0.43414,0.43414,0.43414,0.43415,0.43415,0.43415,0.43415,0.43415,0.43415,0.43415,0.43415,0.43415,0.43415,0.43415,0.43415,0.43415,0.43415,0.43415,0.43415,0.43415,0.43415,0.43415,0.43414,0.43414,0.43413,0.43409,0.4338,0.46319,0.51424,0.55427,0.5785,0.58993,0.58483,0.56047,0.51902,0.46329,0.4338,0.43408,0.43409,0.43406,0.43393,0.43296,0.53166,0.73004,0.92755,1.1249,1.3218,1.5,1.3217,1.1248,0.92748,0.7299,0.53134,0.41853,0.36753,0.31629,0.26988,0.31634,0.36772,0.41969,0.43378,0.43394,0.43397,0.43391,0.4334,0.46572,0.51661,0.56348,0.60405,0.63636,0.65881,0.67032,0.67032,0.65882,0.63637,0.60407,0.5635,0.51664,0.46576,0.43345,0.43398,0.43408,0.43412,0.43414,0.43416,0.43417,0.4342,0.43426,0.43569,0.44969,0.45746,0.45546,0.44456,0.43387,0.43406,0.4341,0.43412,0.43413,0.43413,0.43414,0.43414,0.43414,0.43414,0.43415,0.43415,0.43415,0.43415,0.43415,0.43415,0.43415,0.43415,0.43415,0.43415,0.43415,0.43415,0.43415,0.43415,0.43415,0.43415,0.43415,0.43415,0.43415,0.43414,0.43414,0.43413,0.43409,0.4338,0.46319,0.51424,0.55427,0.5785,0.58993,0.58483,0.56047,0.51902,0.46329,0.4338,0.43408,0.43409,0.43406,0.43393,0.43296,0.53166,0.73004,0.92755,1.1249,1.3218,1.5,1.3217,1.1248,0.92748,0.7299,0.53134,0.41853,0.36753,0.31629,0.26988,0.31634,0.36772,0.41969,0.43378,0.43394,0.43397,0.43391,0.4334,0.46572,0.51661,0.56348,0.60405,0.63636,0.65881,0.67032,0.67032,0.65882,0.63637,0.60407,0.5635,0.51664,0.46576,0.43345,0.43398,0.43408,0.43412,0.43414,0.43416,0.43417,0.4342,0.43426,0.43569,0.44969,0.45746,0.45546,0.44456,0.43387,0.43406,0.4341,0.43412,0.43413,0.43413,0.43414,0.43414,0.43414,0.43414,0.43415,0.43415,0.43415,0.43415,0.43415,0.43415,0.43415,0.43415,0.43415,0.43415,0.43415,0.43415,0.43415,0.43415,0.43415,0.43415,0.43415,0.43415,0.43415,0.43414,0.43414,0.43413,0.43409,0.4338,0.46319,0.51424,0.55427,0.5785,0.58993,0.58483,0.56047,0.51902,0.46329,0.4338,0.43408,0.43409,0.43406,0.43393,0.43296,0.53166,0.73004,0.92755,1.1249,1.3218,1.5,1.3217,1.1248,0.92748,0.7299,0.53134,0.41853,0.36753,0.31629,0.26988,0.31634,0.36772,0.41969,0.43378,0.43394,0.43397,0.43391,0.4334,0.46572,0.51661,0.56348,0.60405,0.63636,0.65881,0.67032,0.67032,0.65882,0.63637,0.60407,0.5635,0.51664,0.46576,0.43345,0.43398,0.43408,0.43412,0.43414,0.43416,0.43417,0.4342,0.43426,0.43569,0.44969,0.45746,0.45546,0.44456,0.43387,0.43406,0.4341,0.43412,0.43413,0.43413,0.43414,0.43414,0.43414,0.43414,0.43415,0.43415,0.43415,0.43415,0.43415,0.43415,0.43415,0.43415,0.43415,0.43415,0.43415,0.43415,0.43415,0.43415,0.43415,0.43415,0.43415,0.43415,0.43415,0.43414,0.43414,0.43413,0.43409,0.4338,0.46319,0.51424,0.55427,0.5785,0.58993,0.58483,0.56047,0.51902,0.46329,0.4338,0.43408,0.43409,0.43406,0.43393,0.43296,0.53166,0.73004,0.92755,1.1249,1.3218,1.5,1.3217,1.1248,0.92748,0.7299,0.53134,0.41853,0.36753,0.31629,0.26988,0.31634,0.36772,0.41969,0.43378,0.43394,0.43397,0.43391,0.4334,0.46572,0.51661,0.56348,0.60405,0.63636,0.65881,0.67032,0.67032,0.65882,0.63637,0.60407,0.5635,0.51664,0.46576,0.43345,0.43398,0.43408,0.43412,0.43414,0.43416,0.43417,0.4342,0.43426,0.43569,0.44969,0.45746,0.45546,0.44456,0.43387,0.43406,0.4341,0.43412,0.43413,0.43413,0.43414,0.43414,0.43414,0.43414,0.43415,0.43415,0.43415,0.43415,0.43415,0.43415,0.43415,0.43415,0.43415,0.43415,0.43415,0.43415,0.43415,0.43415,0.43415,0.43415,0.43415,0.43415,0.43415,0.43414,0.43414,0.43413,0.43409,0.4338,0.46319,0.51424,0.55427,0.5785,0.58993,0.58483,0.56047,0.51902,0.46329,0.4338,0.43408,0.43409,0.43406,0.43393,0.43296,0.53166,0.73004,0.92755,1.1249,1.3218,1.5,1.3217,1.1248,0.92748,0.7299,0.53134,0.41853,0.36753,0.31629,0.26988,0.31634,0.36772,0.41969,0.43378,0.43394,0.43397,0.43391,0.4334,0.46572,0.51661,0.56348,0.60405,0.63636,0.65881,0.67032,0.67032,0.65882,0.63637,0.60407,0.5635,0.51664,0.46576,0.43345,0.43398,0.43408,0.43412,0.43414,0.43416,0.43417,0.4342,0.43426,0.43569,0.44969,0.45746,0.45546,0.44456,0.43387,0.43406,0.4341,0.43412,0.43413,0.43413,0.43414,0.43414,0.43414,0.43414,0.43415,0.43415,0.43415,0.43415,0.43415,0.43415,0.43415,0.43415,0.43415,0.43415,0.43415,0.43415,0.43415,0.43415,0.43415,0.43415,0.43415,0.43415,0.43415,0.43414,0.43414,0.43413,0.43409,0.4338,0.46319,0.51424,0.55427,0.5785,0.58993,0.58483,0.56047,0.51902,0.46329,0.4338,0.43408,0.43409,0.43406,0.43393,0.43296,0.53166,0.73004,0.92755,1.1249,1.3218,1.5,1.3217,1.1248,0.92748,0.7299,0.53134,0.41853,0.36753,0.31629,0.26988,0.31634,0.36772,0.41969,0.43378,0.43394,0.43397,0.43391,0.4334,0.46572,0.51661,0.56348,0.60405,0.63636,0.65881,0.67032,0.67032,0.65882,0.63637,0.60407,0.5635,0.51664,0.46576,0.43345,0.43398,0.43408,0.43412,0.43414,0.43416,0.43417,0.4342,0.43426,0.43569,0.44969,0.45746,0.45546,0.44456,0.43387,0.43406,0.4341,0.43412,0.43413,0.43413,0.43414,0.43414,0.43414,0.43414,0.43415,0.43415,0.43415,0.43415,0.43415,0.43415,0.43415,0.43415,0.43415,0.43415,0.43415,0.43415,0.43415,0.43415,0.43415,0.43415,0.43415,0.43415,0.43415,0.43414,0.43414,0.43413,0.43409,0.4338,0.46319,0.51424,0.55427,0.5785,0.58993,0.58483,0.56047,0.51902,0.46329,0.4338,0.43408,0.43409,0.43406,0.43393,0.43296,0.53166,0.73004,0.92755,1.1249,1.3218,1.5,1.3217,1.1248,0.92748,0.7299,0.53134,0.41853,0.36753,0.31629,0.26988,0.31634,0.36772,0.41969,0.43378,0.43394,0.43397,0.43391,0.4334,0.46572,0.51661,0.56348,0.60405,0.63636,0.65881,0.67032,0.67032,0.65882,0.63637,0.60407,0.5635,0.51664,0.46576,0.43345,0.43398,0.43408,0.43412,0.43414,0.43416,0.43417,0.4342,0.43426,0.43569,0.44969,0.45746,0.45546,0.44456,0.43387,0.43406,0.4341,0.43412,0.43413,0.43413,0.43414,0.43414,0.43414,0.43414,0.43415,0.43415,0.43415,0.43415,0.43415,0.43415,0.43415,0.43415,0.43415,0.43415,0.43415,0.43415,0.43415,0.43415,0.43415,0.43415,0.43415,0.43415,0.43415,0.43414,0.43414,0.43413,0.43409,0.4338,0.46319,0.51424,0.55427,0.5785,0.58993,0.58483,0.56047,0.51902,0.46329,0.4338,0.43408,0.43409,0.43406,0.43393,0.43296,0.53166,0.73004,0.92755,1.1249,1.3218,1.5,1.3217,1.1248,0.92748,0.7299,0.53134,0.41853,0.36753,0.31629,0.26988,0.31634,0.36772,0.41969,0.43378,0.43394,0.43397,0.43391,0.4334,0.46572,0.51661,0.56348,0.60405,0.63636,0.65881,0.67032,0.67032,0.65882,0.63637,0.60407,0.5635,0.51664,0.46576,0.43345,0.43398,0.43408,0.43412,0.43414,0.43416,0.43417,0.4342,0.43426,0.43569,0.44969,0.45746,0.45546,0.44456,0.43387,0.43406,0.4341,0.43412,0.43413,0.43413,0.43414,0.43414,0.43414,0.43414,0.43415,0.43415,0.43415,0.43415,0.43415,0.43415,0.43415,0.43415,0.43415,0.43415,0.43415,0.43415,0.43415,0.43415,0.43415,0.43415,0.43415,0.43415,0.43415,0.43414,0.43414,0.43413,0.43409,0.4338,0.46319,0.51424,0.55427,0.5785,0.58993,0.58483,0.56047,0.51902,0.46329,0.4338,0.43408,0.43409,0.43406,0.43393,0.43296,0.53166,0.73004,0.92755,1.1249,1.3218,1.5,1.3217,1.1248,0.92748,0.7299,0.53134,0.41853,0.36753,0.31629,0.26988,0.31634,0.36772,0.41969,0.43378,0.43394,0.43397,0.43391,0.4334,0.46572,0.51661,0.56348,0.60405,0.63636,0.65881,0.67032,0.67032,0.65882,0.63637,0.60407,0.5635,0.51664,0.46576,0.43345,0.43398,0.43408,0.43412,0.43414,0.43416,0.43417,0.4342,0.43426,0.43569,0.44969,0.45746,0.45546,0.44456,0.43387,0.43406,0.4341,0.43412,0.43413,0.43413,0.43414,0.43414,0.43414,0.43414,0.43415,0.43415,0.43415,0.43415,0.43415,0.43415,0.43415,0.43415,0.43415,0.43415,0.43415,0.43415,0.43415,0.43415,0.43415,0.43415,0.43415,0.43415,0.43415,0.43414,0.43414,0.43413,0.43409,0.4338,0.46319,0.51424,0.55427,0.5785,0.58993,0.58483,0.56047,0.51902,0.46329,0.4338,0.43408,0.43409,0.43406,0.43393,0.43296,0.53166,0.73004,0.92755,1.1249,1.3218,1.5,1.3217,1.1248,0.92748,0.7299,0.53134,0.41853,0.36753,0.31629,0.26988,0.31634,0.36772,0.41969,0.43378,0.43394,0.43397,0.43391,0.4334,0.46572,0.51661,0.56348,0.60405,0.63636,0.65881,0.67032,0.67032,0.65882,0.63637,0.60407,0.5635,0.51664,0.46576,0.43345,0.43398,0.43408,0.43412,0.43414,0.43416,0.43417,0.4342,0.43426,0.43569,0.44969,0.45746,0.45546,0.44456,0.43387,0.43406,0.4341,0.43412,0.43413,0.43413,0.43414,0.43414,0.43414,0.43414,0.43415,0.43415,0.43415,0.43415,0.43415,0.43415,0.43415,0.43415,0.43415,0.43415,0.43415,0.43415,0.43415,0.43415,0.43415,0.43415,0.43415,0.43415,0.43415,0.43414,0.43414,0.43413,0.43409,0.4338,0.46319,0.51424,0.55427,0.5785,0.58993,0.58483,0.56047,0.51902,0.46329,0.4338,0.43408,0.43409,0.43406,0.43393,0.43296,0.53166,0.73004,0.92755,1.1249,1.3218,1.5,1.3217,1.1248,0.92748,0.7299,0.53134,0.41853,0.36753,0.31629,0.26988,0.31634,0.36772,0.41969,0.43378,0.43394,0.43397,0.43391,0.4334,0.46572,0.51661,0.56348,0.60405,0.63636,0.65881,0.67032,0.67032,0.65882,0.63637,0.60407,0.5635,0.51664,0.46576,0.43345,0.43398,0.43408,0.43412,0.43414,0.43416,0.43417,0.4342,0.43426,0.43569,0.44969,0.45746,0.45546,0.44456,0.43387,0.43406,0.4341,0.43412,0.43413,0.43413,0.43414,0.43414,0.43414,0.43414,0.43415,0.43415,0.43415,0.43415,0.43415,0.43415,0.43415,0.43415,0.43415,0.43415,0.43415,0.43415,0.43415,0.43415,0.43415,0.43415,0.43415,0.43415,0.43415,0.43414,0.43414,0.43413,0.43409,0.4338,0.46319,0.51424,0.55427,0.5785,0.58993,0.58483,0.56047,0.51902,0.46329,0.4338,0.43408,0.43409,0.43406,0.43393,0.43296,0.53166,0.73004,0.92755,1.1249,1.3218,1.5,1.3217,1.1248,0.92748,0.7299,0.53134,0.41853,0.36753,0.31629,0.26988,0.31634,0.36772,0.41969,0.43378,0.43394,0.43397,0.43391,0.4334,0.46572,0.51661,0.56348,0.60405,0.63636,0.65881,0.67032,0.67032,0.65882,0.63637,0.60407,0.5635,0.51664,0.46576,0.43345,0.43398,0.43408,0.43412,0.43414,0.43416,0.43417,0.4342,0.43426,0.43569,0.44969,0.45746,0.45546,0.44456,0.43387,0.43406,0.4341,0.43412,0.43413,0.43413,0.43414,0.43414,0.43414,0.43414,0.43415,0.43415,0.43415,0.43415,0.43415,0.43415,0.43415,0.43415,0.43415,0.43415,0.43415,0.43415,0.43415,0.43415,0.43415,0.43415,0.43415,0.43415,0.43415,0.43414,0.43414,0.43413,0.43409,0.4338,0.46319,0.51424,0.55427,0.5785,0.58993,0.58483,0.56047,0.51902,0.46329,0.4338,0.43408,0.43409,0.43406,0.43393,0.43296,0.53166,0.73004,0.92755,1.1249,1.3218,1.5,1.3217,1.1248,0.92748,0.7299,0.53134,0.41853,0.36753,0.31629,0.26988,0.31634,0.36772,0.41969,0.43378,0.43394,0.43397,0.43391,0.4334,0.46572,0.51661,0.56348,0.60405,0.63636,0.65881,0.67032,0.67032,0.65882,0.63637,0.60407,0.5635,0.51664,0.46576,0.43345,0.43398,0.43408,0.43412,0.43414,0.43416,0.43417,0.4342,0.43426,0.43569,0.44969,0.45746,0.45546,0.44456,0.43387,0.43406,0.4341,0.43412,0.43413,0.43413,0.43414,0.43414,0.43414,0.43414,0.43415,0.43415,0.43415,0.43415,0.43415,0.43415,0.43415,0.43415,0.43415,0.43415,0.43415,0.43415,0.43415,0.43415,0.43415,0.43415,0.43415,0.43415,0.43415,0.43414,0.43414,0.43413,0.43409,0.4338,0.46319,0.51424,0.55427,0.5785,0.58993,0.58483,0.56047,0.51902,0.46329,0.4338,0.43408,0.43409,0.43406,0.43393,0.43296,0.53166,0.73004,0.92755,1.1249,1.3218,1.5,1.3217,1.1248,0.92748,0.7299,0.53134,0.41853,0.36753,0.31629,0.26988,0.31634,0.36772,0.41969,0.43378,0.43394,0.43397,0.43391,0.4334,0.46572,0.51661,0.56348,0.60405,0.63636,0.65881,0.67032,0.67032,0.65882,0.63637,0.60407,0.5635,0.51664,0.46576,0.43345,0.43398,0.43408,0.43412,0.43414,0.43416,0.43417,0.4342,0.43426,0.43569,0.44969,0.45746,0.45546,0.44456,0.43387,0.43406,0.4341,0.43412,0.43413,0.43413,0.43414,0.43414,0.43414,0.43414,0.43415,0.43415,0.43415,0.43415,0.43415,0.43415,0.43415,0.43415,0.43415,0.43415,0.43415,0.43415,0.43415,0.43415,0.43415,0.43415,0.43415,0.43415,0.43415,0.43414,0.43414,0.43413,0.43409,0.4338,0.46319,0.51424,0.55427,0.5785,0.58993,0.58483,0.56047,0.51902,0.46329,0.4338,0.43408,0.43409,0.43406,0.43393,0.43296,0.53166,0.73004,0.92755,1.1249,1.3218,1.5,1.3217,1.1248,0.92748,0.7299,0.53134,0.41853,0.36753,0.31629,0.26988,0.31634,0.36772,0.41969,0.43378,0.43394,0.43397,0.43391,0.4334,0.46572,0.51661,0.56348,0.60405,0.63636,0.65881,0.67032,0.67032,0.65882,0.63637,0.60407,0.5635,0.51664,0.46576,0.43345,0.43398,0.43408,0.43412,0.43414,0.43416,0.43417,0.4342,0.43426,0.43569,0.44969,0.45746,0.45546,0.44456,0.43387,0.43406,0.4341,0.43412,0.43413,0.43413,0.43414,0.43414,0.43414,0.43414,0.43415,0.43415,0.43415,0.43415,0.43415,0.43415,0.43415,0.43415,0.43415,0.43415,0.43415,0.43415,0.43415,0.43415,0.43415,0.43415,0.43415,0.43415,0.43415,0.43414,0.43414,0.43413,0.43409,0.4338,0.46319,0.51424,0.55427,0.5785,0.58993,0.58483,0.56047,0.51902,0.46329,0.4338,0.43408,0.43409,0.43406,0.43393,0.43296,0.53166,0.73004,0.92755,1.1249,1.3218,1.5,1.3217,1.1248,0.92748,0.7299,0.53134,0.41853,0.36753,0.31629,0.26988,0.31634,0.36772,0.41969,0.43378,0.43394,0.43397,0.43391,0.4334,0.46572,0.51661,0.56348,0.60405,0.63636,0.65881,0.67032,0.67032,0.65882,0.63637,0.60407,0.5635,0.51664,0.46576,0.43345,0.43398,0.43408,0.43412,0.43414,0.43416,0.43417,0.4342,0.43426,0.43569,0.44969,0.45746,0.45546,0.44456,0.43387,0.43406,0.4341,0.43412,0.43413,0.43413,0.43414,0.43414,0.43414,0.43414,0.43415,0.43415,0.43415,0.43415,0.43415,0.43415,0.43415,0.43415,0.43415,0.43415,0.43415,0.43415,0.43415,0.43415,0.43415,0.43415,0.43415,0.43415,0.43415,0.43414,0.43414,0.43413,0.43409,0.4338,0.46319,0.51424,0.55427,0.5785,0.58993,0.58483,0.56047,0.51902,0.46329,0.4338,0.43408,0.43409,0.43406,0.43393,0.43296,0.53166,0.73004,0.92755,1.1249,1.3218,1.5,1.3217,1.1248,0.92748,0.7299,0.53134,0.41853,0.36753,0.31629,0.26988,0.31634,0.36772,0.41969,0.43378,0.43394,0.43397,0.43391,0.4334,0.46572,0.51661,0.56348,0.60405,0.63636,0.65881,0.67032,0.67032,0.65882,0.63637,0.60407,0.5635,0.51664,0.46576,0.43345,0.43398,0.43408,0.43412,0.43414,0.43416,0.43417,0.4342,0.43426,0.43569,0.44969,0.45746,0.45546,0.44456,0.43387,0.43406,0.4341,0.43412,0.43413,0.43413,0.43414,0.43414,0.43414,0.43414,0.43415,0.43415,0.43415,0.43415,0.43415,0.43415,0.43415,0.43415,0.43415,0.43415,0.43415,0.43415,0.43415,0.43415,0.43415,0.43415,0.43415,0.43415,0.43415,0.43414,0.43414,0.43413,0.43409,0.4338,0.46319,0.51424,0.55427,0.5785,0.58993,0.58483,0.56047,0.51902,0.46329,0.4338,0.43408,0.43409,0.43406,0.43393,0.43296,0.53166,0.73004,0.92755,1.1249,1.3218,1.5,1.3217,1.1248,0.92748,0.7299,0.53134,0.41853,0.36753,0.31629,0.26988,0.31634,0.36772,0.41969,0.43378,0.43394,0.43397,0.43391,0.4334,0.46572,0.51661,0.56348,0.60405,0.63636,0.65881,0.67032,0.67032,0.65882,0.63637,0.60407,0.5635,0.51664,0.46576,0.43345,0.43398,0.43408,0.43412,0.43414,0.43416,0.43417,0.4342,0.43426,0.43569,0.44969,0.45746,0.45546,0.44456,0.43387,0.43406,0.4341,0.43412,0.43413,0.43413,0.43414,0.43414,0.43414,0.43414,0.43415,0.43415,0.43415,0.43415,0.43415,0.43415,0.43415,0.43415,0.43415,0.43415,0.43415,0.43415,0.43415,0.43415,0.43415,0.43415,0.43415,0.43415,0.43415,0.43414,0.43414,0.43413,0.43409,0.4338,0.46319,0.51424,0.55427,0.5785,0.58993,0.58483,0.56047,0.51902,0.46329,0.4338,0.43408,0.43409,0.43406,0.43393,0.43296,0.53166,0.73004,0.92755,1.1249,1.3218,1.5,1.3217,1.1248,0.92748,0.7299,0.53134,0.41853,0.36753,0.31629,0.26988,0.31634,0.36772,0.41969,0.43378,0.43394,0.43397,0.43391,0.4334,0.46572,0.51661,0.56348,0.60405,0.63636,0.65881,0.67032,0.67032,0.65882,0.63637,0.60407,0.5635,0.51664,0.46576,0.43345,0.43398,0.43408,0.43412,0.43414,0.43416,0.43417,0.4342,0.43426,0.43569,0.44969,0.45746,0.45546,0.44456,0.43387,0.43406,0.4341,0.43412,0.43413,0.43413,0.43414,0.43414,0.43414,0.43414,0.43415,0.43415,0.43415,0.43415,0.43415,0.43415,0.43415,0.43415,0.43415,0.43415,0.43415,0.43415,0.43415,0.43415,0.43415,0.43415,0.43415,0.43415,0.43415,0.43414,0.43414,0.43413,0.43409,0.4338,0.46319,0.51424,0.55427,0.5785,0.58993,0.58483,0.56047,0.51902,0.46329,0.4338,0.43408,0.43409,0.43406,0.43393,0.43296,0.53166,0.73004,0.92755,1.1249,1.3218,1.5,1.3217,1.1248,0.92748,0.7299,0.53134,0.41853,0.36753,0.31629,0.26988,0.31634,0.36772,0.41969,0.43378,0.43394,0.43397,0.43391,0.4334,0.46572,0.51661,0.56348,0.60405,0.63636,0.65881,0.67032,0.67032,0.65882,0.63637,0.60407,0.5635,0.51664,0.46576,0.43345,0.43398,0.43408,0.43412,0.43414,0.43416,0.43417,0.4342,0.43426,0.43569,0.44969,0.45746,0.45546,0.44456,0.43387,0.43406,0.4341,0.43412,0.43413,0.43413,0.43414,0.43414,0.43414,0.43414,0.43415,0.43415,0.43415,0.43415,0.43415,0.43415,0.43415,0.43415,0.43415,0.43415,0.43415,0.43415,0.43415,0.43415,0.43415,0.43415,0.43415,0.43415,0.43415,0.43414,0.43414,0.43413,0.43409,0.4338,0.46319,0.51424,0.55427,0.5785,0.58993,0.58483,0.56047,0.51902,0.46329,0.4338,0.43408,0.43409,0.43406,0.43393,0.43296,0.53166,0.73004,0.92755,1.1249,1.3218,1.5,1.3217,1.1248,0.92748,0.7299,0.53134,0.41853,0.36753,0.31629,0.26988,0.31634,0.36772,0.41969,0.43378,0.43394,0.43397,0.43391,0.4334,0.46572,0.51661,0.56348,0.60405,0.63636,0.65881,0.67032,0.67032,0.65882,0.63637,0.60407,0.5635,0.51664,0.46576,0.43345,0.43398,0.43408,0.43412,0.43414,0.43416,0.43417,0.4342,0.43426,0.43569,0.44969,0.45746,0.45546,0.44456,0.43387,0.43406,0.4341,0.43412,0.43413,0.43413,0.43414,0.43414,0.43414,0.43414,0.43415,0.43415,0.43415,0.43415,0.43415,0.43415,0.43415,0.43415,0.43415,0.43415,0.43415,0.43415,0.43415,0.43415,0.43415,0.43415,0.43415,0.43415,0.43415,0.43414,0.43414,0.43413,0.43409,0.4338,0.46319,0.51424,0.55427,0.5785,0.58993,0.58483,0.56047,0.51902,0.46329,0.4338,0.43408,0.43409,0.43406,0.43393,0.43296,0.53166,0.73004,0.92755,1.1249,1.3218,1.5,1.3217,1.1248,0.92748,0.7299,0.53134,0.41853,0.36753,0.31629,0.26988,0.31634,0.36772,0.41969,0.43378,0.43394,0.43397,0.43391,0.4334,0.46572,0.51661,0.56348,0.60405,0.63636,0.65881,0.67032,0.67032,0.65882,0.63637,0.60407,0.5635,0.51664,0.46576,0.43345,0.43398,0.43408,0.43412,0.43414,0.43416,0.43417,0.4342,0.43426,0.43569,0.44969,0.45746,0.45546,0.44456,0.43387,0.43406,0.4341,0.43412,0.43413,0.43413,0.43414,0.43414,0.43414,0.43414,0.43415,0.43415,0.43415,0.43415,0.43415,0.43415,0.43415,0.43415,0.43415,0.43415,0.43415,0.43415,0.43415,0.43415,0.43415,0.43415,0.43415,0.43415,0.43415,0.43414,0.43414,0.43413,0.43409,0.4338,0.46319,0.51424,0.55427,0.5785,0.58993,0.58483,0.56047,0.51902,0.46329,0.4338,0.43408,0.43409,0.43406,0.43393,0.43296,0.53166,0.73004,0.92755,1.1249,1.3218,1.5,1.3217,1.1248,0.92748,0.7299,0.53134,0.41853,0.36753,0.31629,0.26988,0.31634,0.36772,0.41969,0.43378,0.43394,0.43397,0.43391,0.4334,0.46572,0.51661,0.56348,0.60405,0.63636,0.65881,0.67032,0.67032,0.65882,0.63637,0.60407,0.5635,0.51664,0.46576,0.43345,0.43398,0.43408,0.43412,0.43414,0.43416,0.43417,0.4342,0.43426,0.43569,0.44969,0.45746,0.45546,0.44456,0.43387,0.43406,0.4341,0.43412,0.43413,0.43413,0.43414,0.43414,0.43414,0.43414,0.43415,0.43415,0.43415,0.43415,0.43415,0.43415,0.43415,0.43415,0.43415,0.43415,0.43415,0.43415,0.43415,0.43415,0.43415,0.43415,0.43415,0.43415,0.43415,0.43414,0.43414,0.43413,0.43409,0.4338,0.46319,0.51424,0.55427,0.5785,0.58993,0.58483,0.56047,0.51902,0.46329,0.4338,0.43408,0.43409,0.43406,0.43393,0.43296,0.53166,0.73004,0.92755,1.1249,1.3218,1.5,1.3217,1.1248,0.92748,0.7299,0.53134,0.41853,0.36753,0.31629,0.26988,0.31634,0.36772,0.41969,0.43378,0.43394,0.43397,0.43391,0.4334,0.46572,0.51661,0.56348,0.60405,0.63636,0.65881,0.67032,0.67032,0.65882,0.63637,0.60407,0.5635,0.51664,0.46576,0.43345,0.43398,0.43408,0.43412,0.43414,0.43416,0.43417,0.4342,0.43426,0.43569,0.44969,0.45746,0.45546,0.44456,0.43387,0.43406,0.4341,0.43412,0.43413,0.43413,0.43414,0.43414,0.43414,0.43414,0.43415,0.43415,0.43415,0.43415,0.43415,0.43415,0.43415,0.43415,0.43415,0.43415,0.43415,0.43415,0.43415,0.43415,0.43415,0.43415,0.43415,0.43415,0.43415,0.43414,0.43414,0.43413,0.43409,0.4338,0.46319,0.51424,0.55427,0.5785,0.58993,0.58483,0.56047,0.51902,0.46329,0.4338,0.43408,0.43409,0.43406,0.43393,0.43296,0.53166,0.73004,0.92755,1.1249,1.3218,1.5,1.3217,1.1248,0.92748,0.7299,0.53134,0.41853,0.36753,0.31629,0.26988,0.31634,0.36772,0.41969,0.43378,0.43394,0.43397,0.43391,0.4334,0.46572,0.51661,0.56348,0.60405,0.63636,0.65881,0.67032,0.67032,0.65882,0.63637,0.60407,0.5635,0.51664,0.46576,0.43345,0.43398,0.43408,0.43412,0.43414,0.43416,0.43417,0.4342,0.43426,0.43569,0.44969,0.45746,0.45546,0.44456,0.43387,0.43406,0.4341,0.43412,0.43413,0.43413,0.43414,0.43414,0.43414,0.43414,0.43415,0.43415,0.43415,0.43415,0.43415,0.43415,0.43415,0.43415,0.43415,0.43415,0.43415,0.43415,0.43415,0.43415,0.43415,0.43415,0.43415,0.43415,0.43415,0.43414,0.43414,0.43413,0.43409,0.4338,0.46319,0.51424,0.55427,0.5785,0.58993,0.58483,0.56047,0.51902,0.46329,0.4338,0.43408,0.43409,0.43406,0.43393,0.43296,0.53166,0.73004,0.92755,1.1249,1.3218,1.5,1.3217,1.1248,0.92748,0.7299,0.53134,0.41853,0.36753,0.31629,0.26988,0.31634,0.36772,0.41969,0.43378,0.43394,0.43397,0.43391,0.4334,0.46572,0.51661,0.56348,0.60405,0.63636,0.65881,0.67032,0.67032,0.65882,0.63637,0.60407,0.5635,0.51664,0.46576,0.43345,0.43398,0.43408,0.43412,0.43414,0.43416,0.43417,0.4342,0.43426,0.43569,0.44969,0.45746,0.45546,0.44456,0.43387,0.43406,0.4341,0.43412,0.43413,0.43413,0.43414,0.43414,0.43414,0.43414,0.43415,0.43415,0.43415,0.43415,0.43415,0.43415,0.43415,0.43415,0.43415,0.43415,0.43415,0.43415,0.43415,0.43415,0.43415,0.43415,0.43415,0.43415,0.43415,0.43414,0.43414,0.43413,0.43409,0.4338,0.46319,0.51424,0.55427,0.5785,0.58993,0.58483,0.56047,0.51902,0.46329,0.4338,0.43408,0.43409,0.43406,0.43393,0.43296,0.53166,0.73004,0.92755,1.1249,1.3218,1.5,1.3217,1.1248,0.92748,0.7299,0.53134,0.41853,0.36753,0.31629,0.26988,0.31634,0.36772,0.41969,0.43378,0.43394,0.43397,0.43391,0.4334,0.46572,0.51661,0.56348,0.60405,0.63636,0.65881,0.67032,0.67032,0.65882,0.63637,0.60407,0.5635,0.51664,0.46576,0.43345,0.43398,0.43408,0.43412,0.43414,0.43416,0.43417,0.4342,0.43426,0.43569,0.44969,0.45746,0.45546,0.44456,0.43387,0.43406,0.4341,0.43412,0.43413,0.43413,0.43414,0.43414,0.43414,0.43414,0.43415,0.43415,0.43415,0.43415,0.43415,0.43415,0.43415,0.43415,0.43415,0.43415,0.43415,0.43415,0.43415,0.43415,0.43415,0.43415,0.43415,0.43415,0.43415,0.43414,0.43414,0.43413,0.43409,0.4338,0.46319,0.51424,0.55427,0.5785,0.58993,0.58483,0.56047,0.51902,0.46329,0.4338,0.43408,0.43409,0.43406,0.43393,0.43296,0.53166,0.73004,0.92755,1.1249,1.3218,1.5,1.3217,1.1248,0.92748,0.7299,0.53134,0.41853,0.36753,0.31629,0.26988,0.31634,0.36772,0.41969,0.43378,0.43394,0.43397,0.43391,0.4334,0.46572,0.51661,0.56348,0.60405,0.63636,0.65881,0.67032,0.67032,0.65882,0.63637,0.60407,0.5635,0.51664,0.46576,0.43345,0.43398,0.43408,0.43412,0.43414,0.43416,0.43417,0.4342,0.43426,0.43569,0.44969,0.45746,0.45546,0.44456,0.43387,0.43406,0.4341,0.43412,0.43413,0.43413,0.43414,0.43414,0.43414,0.43414,0.43415,0.43415,0.43415,0.43415,0.43415,0.43415,0.43415,0.43415,0.43415,0.43415,0.43415,0.43415,0.43415,0.43415,0.43415,0.43415,0.43415,0.43415,0.43415,0.43414,0.43414,0.43413,0.43409,0.4338,0.46319,0.51424,0.55427,0.5785,0.58993,0.58483,0.56047,0.51902,0.46329,0.4338,0.43408,0.43409,0.43406,0.43393,0.43296,0.53166,0.73004,0.92755,1.1249,1.3218,1.5,1.3217,1.1248,0.92748,0.7299,0.53134,0.41853,0.36753,0.31629,0.26988,0.31634,0.36772,0.41969,0.43378,0.43394,0.43397,0.43391,0.4334,0.46572,0.51661,0.56348,0.60405,0.63636,0.65881,0.67032,0.67032,0.65882,0.63637,0.60407,0.5635,0.51664,0.46576,0.43345,0.43398,0.43408,0.43412,0.43414,0.43416,0.43417,0.4342,0.43426,0.43569,0.44969,0.45746,0.45546,0.44456,0.43387,0.43406,0.4341,0.43412,0.43413,0.43413,0.43414,0.43414,0.43414,0.43414,0.43415,0.43415,0.43415,0.43415,0.43415,0.43415,0.43415,0.43415,0.43415,0.43415,0.43415,0.43415,0.43415,0.43415,0.43415,0.43415,0.43415,0.43415,0.43415,0.43414,0.43414,0.43413,0.43409,0.4338,0.46319,0.51424,0.55427,0.5785,0.58993,0.58483,0.56047,0.51902,0.46329,0.4338,0.43408,0.43409,0.43406,0.43393,0.43296,0.53166,0.73004,0.92755,1.1249,1.3218,1.5,1.3217,1.1248,0.92748,0.7299,0.53134,0.41853,0.36753,0.31629,0.26988,0.31634,0.36772,0.41969,0.43378,0.43394,0.43397,0.43391,0.4334,0.46572,0.51661,0.56348,0.60405,0.63636,0.65881,0.67032,0.67032,0.65882,0.63637,0.60407,0.5635,0.51664,0.46576,0.43345,0.43398,0.43408,0.43412,0.43414,0.43416,0.43417,0.4342,0.43426,0.43569,0.44969,0.45746,0.45546,0.44456,0.43387,0.43406,0.4341,0.43412,0.43413,0.43413,0.43414,0.43414,0.43414,0.43414,0.43415,0.43415,0.43415,0.43415,0.43415,0.43415,0.43415,0.43415,0.43415,0.43415,0.43415,0.43415,0.43415,0.43415,0.43415,0.43415,0.43415,0.43415,0.43415,0.43414,0.43414,0.43413,0.43409,0.4338,0.46319,0.51424,0.55427,0.5785,0.58993,0.58483,0.56047,0.51902,0.46329,0.4338,0.43408,0.43409,0.43406,0.43393,0.43296,0.53166,0.73004,0.92755,1.1249,1.3218,1.5,1.3217,1.1248,0.92748,0.7299,0.53134,0.41853,0.36753,0.31629,0.26988,0.31634,0.36772,0.41969,0.43378,0.43394,0.43397,0.43391,0.4334,0.46572,0.51661,0.56348,0.60405,0.63636,0.65881,0.67032,0.67032,0.65882,0.63637,0.60407,0.5635,0.51664,0.46576,0.43345,0.43398,0.43408,0.43412,0.43414,0.43416,0.43417,0.4342,0.43426,0.43569,0.44969,0.45746,0.45546,0.44456,0.43387,0.43406,0.4341,0.43412,0.43413,0.43413,0.43414,0.43414,0.43414,0.43414,0.43415,0.43415,0.43415,0.43415,0.43415,0.43415,0.43415,0.43415,0.43415,0.43415,0.43415,0.43415,0.43415,0.43415,0.43415,0.43415,0.43415,0.43415,0.43415,0.43414,0.43414,0.43413,0.43409,0.4338,0.46319,0.51424,0.55427,0.5785,0.58993,0.58483,0.56047,0.51902,0.46329,0.4338,0.43408,0.43409,0.43406,0.43393,0.43296,0.53166,0.73004,0.92755,1.1249,1.3218,1.5,1.3217,1.1248,0.92748,0.7299,0.53134,0.41853,0.36753,0.31629,0.26988,0.31634,0.36772,0.41969,0.43378,0.43394,0.43397,0.43391,0.4334,0.46572,0.51661,0.56348,0.60405,0.63636,0.65881,0.67032,0.67032,0.65882,0.63637,0.60407,0.5635,0.51664,0.46576,0.43345,0.43398,0.43408,0.43412,0.43414,0.43416,0.43417,0.4342,0.43426,0.43569,0.44969,0.45746,0.45546,0.44456,0.43387,0.43406,0.4341,0.43412,0.43413,0.43413,0.43414,0.43414,0.43414,0.43414,0.43415,0.43415,0.43415,0.43415,0.43415,0.43415,0.43415,0.43415,0.43415,0.43415,0.43415,0.43415,0.43415,0.43415,0.43415,0.43415,0.43415,0.43415,0.43415,0.43414,0.43414,0.43413,0.43409,0.4338,0.46319,0.51424,0.55427,0.5785,0.58993,0.58483,0.56047,0.51902,0.46329,0.4338,0.43408,0.43409,0.43406,0.43393,0.43296,0.53166,0.73004,0.92755,1.1249,1.3218,1.5,1.3217,1.1248,0.92748,0.7299,0.53134,0.41853,0.36753,0.31629,0.26988,0.31634,0.36772,0.41969,0.43378,0.43394,0.43397,0.43391,0.4334,0.46572,0.51661,0.56348,0.60405,0.63636,0.65881,0.67032,0.67032,0.65882,0.63637,0.60407,0.5635,0.51664,0.46576,0.43345,0.43398,0.43408,0.43412,0.43414,0.43416,0.43417,0.4342,0.43426,0.43569,0.44969,0.45746,0.45546,0.44456,0.43387,0.43406,0.4341,0.43412,0.43413,0.43413,0.43414,0.43414,0.43414,0.43414,0.43415,0.43415,0.43415,0.43415,0.43415,0.43415,0.43415,0.43415,0.43415,0.43415,0.43415,0.43415,0.43415,0.43415,0.43415,0.43415,0.43415,0.43415,0.43415,0.43414,0.43414,0.43413,0.43409,0.4338,0.46319,0.51424,0.55427,0.5785,0.58993,0.58483,0.56047,0.51902,0.46329,0.4338,0.43408,0.43409,0.43406,0.43393,0.43296,0.53166,0.73004,0.92755,1.1249,1.3218,1.5,1.3217,1.1248,0.92748,0.7299,0.53134,0.41853,0.36753,0.31629,0.26988,0.31634,0.36772,0.41969,0.43378,0.43394,0.43397,0.43391,0.4334,0.46572,0.51661,0.56348,0.60405,0.63636,0.65881,0.67032,0.67032,0.65882,0.63637,0.60407,0.5635,0.51664,0.46576,0.43345,0.43398,0.43408,0.43412,0.43414,0.43416,0.43417,0.4342,0.43426,0.43569,0.44969,0.45746,0.45546,0.44456,0.43387,0.43406,0.4341,0.43412,0.43413,0.43413,0.43414,0.43414,0.43414,0.43414,0.43415,0.43415,0.43415,0.43415,0.43415,0.43415,0.43415,0.43415,0.43415,0.43415,0.43415,0.43415,0.43415,0.43415,0.43415,0.43415,0.43415,0.43415,0.43415,0.43414,0.43414,0.43413,0.43409,0.4338,0.46319,0.51424,0.55427,0.5785,0.58993,0.58483,0.56047,0.51902,0.46329,0.4338,0.43408,0.43409,0.43406,0.43393,0.43296,0.53166,0.73004,0.92755,1.1249,1.3218,1.5,1.3217,1.1248,0.92748,0.7299,0.53134,0.41853,0.36753,0.31629,0.26988,0.31634,0.36772,0.41969,0.43378,0.43394,0.43397,0.43391,0.4334,0.46572,0.51661,0.56348,0.60405,0.63636,0.65881,0.67032,0.67032,0.65882,0.63637,0.60407,0.5635,0.51664,0.46576,0.43345,0.43398,0.43408,0.43412,0.43414,0.43416,0.43417,0.4342,0.43426,0.43569,0.44969,0.45746,0.45546,0.44456,0.43387,0.43406,0.4341,0.43412,0.43413,0.43413,0.43414,0.43414,0.43414,0.43414,0.43415,0.43415,0.43415,0.43415,0.43415,0.43415,0.43415,0.43415,0.43415,0.43415,0.43415,0.43415,0.43415,0.43415,0.43415,0.43415,0.43415,0.43415,0.43415,0.43414,0.43414,0.43413,0.43409,0.4338,0.46319,0.51424,0.55427,0.5785,0.58993,0.58483,0.56047,0.51902,0.46329,0.4338,0.43408,0.43409,0.43406,0.43393,0.43296,0.53166,0.73004,0.92755,1.1249,1.3218,1.5,1.3217,1.1248,0.92748,0.7299,0.53134,0.41853,0.36753,0.31629,0.26988,0.31634,0.36772,0.41969,0.43378,0.43394,0.43397,0.43391,0.4334,0.46572,0.51661,0.56348,0.60405,0.63636,0.65881,0.67032,0.67032,0.65882,0.63637,0.60407,0.5635,0.51664,0.46576,0.43345,0.43398,0.43408,0.43412,0.43414,0.43416,0.43417,0.4342,0.43426,0.43569,0.44969,0.45746,0.45546,0.44456,0.43387,0.43406,0.4341,0.43412,0.43413,0.43413,0.43414,0.43414,0.43414,0.43414,0.43415,0.43415,0.43415,0.43415,0.43415,0.43415,0.43415,0.43415,0.43415,0.43415,0.43415,0.43415,0.43415,0.43415,0.43415,0.43415,0.43415,0.43415,0.43415,0.43414,0.43414,0.43413,0.43409,0.4338,0.46319,0.51424,0.55427,0.5785,0.58993,0.58483,0.56047,0.51902,0.46329,0.4338,0.43408,0.43409,0.43406,0.43393,0.43296,0.53166,0.73004,0.92755,1.1249,1.3218,1.5,1.3217,1.1248,0.92748,0.7299,0.53134,0.41853,0.36753,0.31629,0.26988,0.31634,0.36772,0.41969,0.43378,0.43394,0.43397,0.43391,0.4334,0.46572,0.51661,0.56348,0.60405,0.63636,0.65881,0.67032,0.67032,0.65882,0.63637,0.60407,0.5635,0.51664,0.46576,0.43345,0.43398,0.43408,0.43412,0.43414,0.43416,0.43417,0.4342,0.43426,0.43569,0.44969,0.45746,0.45546,0.44456,0.43387,0.43406,0.4341,0.43412,0.43413,0.43413,0.43414,0.43414,0.43414,0.43414,0.43415,0.43415,0.43415,0.43415,0.43415,0.43415,0.43415,0.43415,0.43415,0.43415,0.43415,0.43415,0.43415,0.43415,0.43415,0.43415,0.43415,0.43415,0.43415,0.43414,0.43414,0.43413,0.43409,0.4338,0.46319,0.51424,0.55427,0.5785,0.58993,0.58483,0.56047,0.51902,0.46329,0.4338,0.43408,0.43409,0.43406,0.43393,0.43296,0.53166,0.73004,0.92755,1.1249,1.3218,1.5,1.3217,1.1248,0.92748,0.7299,0.53134,0.41853,0.36753,0.31629,0.26988,0.31634,0.36772,0.41969,0.43378,0.43394,0.43397,0.43391,0.4334,0.46572,0.51661,0.56348,0.60405,0.63636,0.65881,0.67032,0.67032,0.65882,0.63637,0.60407,0.5635,0.51664,0.46576,0.43345,0.43398,0.43408,0.43412,0.43414,0.43416,0.43417,0.4342,0.43426,0.43569,0.44969,0.45746,0.45546,0.44456,0.43387,0.43406,0.4341,0.43412,0.43413,0.43413,0.43414,0.43414,0.43414,0.43414,0.43415,0.43415,0.43415,0.43415,0.43415,0.43415,0.43415,0.43415,0.43415,0.43415,0.43415,0.43415,0.43415,0.43415,0.43415,0.43415,0.43415,0.43415,0.43415,0.43414,0.43414,0.43413,0.43409,0.4338,0.46319,0.51424,0.55427,0.5785,0.58993,0.58483,0.56047,0.51902,0.46329,0.4338,0.43408,0.43409,0.43406,0.43393,0.43296,0.53166,0.73004,0.92755,1.1249,1.3218,1.5,1.3217,1.1248,0.92748,0.7299,0.53134,0.41853,0.36753,0.31629,0.26988,0.31634,0.36772,0.41969,0.43378,0.43394,0.43397,0.43391,0.4334,0.46572,0.51661,0.56348,0.60405,0.63636,0.65881,0.67032,0.67032,0.65882,0.63637,0.60407,0.5635,0.51664,0.46576,0.43345,0.43398,0.43408,0.43412,0.43414,0.43416,0.43417,0.4342,0.43426,0.43569,0.44969,0.45746,0.45546,0.44456,0.43387,0.43406,0.4341,0.43412,0.43413,0.43413,0.43414,0.43414,0.43414,0.43414,0.43415,0.43415,0.43415,0.43415,0.43415,0.43415,0.43415,0.43415,0.43415,0.43415,0.43415,0.43415,0.43415,0.43415,0.43415,0.43415,0.43415,0.43415,0.43415,0.43414,0.43414,0.43413,0.43409,0.4338,0.46319,0.51424,0.55427,0.5785,0.58993,0.58483,0.56047,0.51902,0.46329,0.4338,0.43408,0.43409,0.43406,0.43393,0.43296,0.53166,0.73004,0.92755,1.1249,1.3218,1.5,1.3217,1.1248,0.92748,0.7299,0.53134,0.41853,0.36753,0.31629,0.26988,0.31634,0.36772,0.41969,0.43378,0.43394,0.43397,0.43391,0.4334,0.46572,0.51661,0.56348,0.60405,0.63636,0.65881,0.67032,0.67032,0.65882,0.63637,0.60407,0.5635,0.51664,0.46576,0.43345,0.43398,0.43408,0.43412,0.43414,0.43416,0.43417,0.4342,0.43426,0.43569,0.44969,0.45746,0.45546,0.44456,0.43387,0.43406,0.4341,0.43412,0.43413,0.43413,0.43414,0.43414,0.43414,0.43414,0.43415,0.43415,0.43415,0.43415,0.43415,0.43415,0.43415,0.43415,0.43415,0.43415,0.43415,0.43415,0.43415,0.43415,0.43415,0.43415,0.43415,0.43415,0.43415,0.43414,0.43414,0.43413,0.43409,0.4338,0.46319,0.51424,0.55427,0.5785,0.58993,0.58483,0.56047,0.51902,0.46329,0.4338,0.43408,0.43409,0.43406,0.43393,0.43296,0.53166,0.73004,0.92755,1.1249,1.3218,1.5,1.3217,1.1248,0.92748,0.7299,0.53134,0.41853,0.36753,0.31629,0.26988,0.31634,0.36772,0.41969,0.43378,0.43394,0.43397,0.43391,0.4334,0.46572,0.51661,0.56348,0.60405,0.63636,0.65881,0.67032,0.67032,0.65882,0.63637,0.60407,0.5635,0.51664,0.46576,0.43345,0.43398,0.43408,0.43412,0.43414,0.43416,0.43417,0.4342,0.43426,0.43569,0.44969,0.45746,0.45546,0.44456,0.43387,0.43406,0.4341,0.43412,0.43413,0.43413,0.43414,0.43414,0.43414,0.43414,0.43415,0.43415,0.43415,0.43415,0.43415,0.43415,0.43415,0.43415,0.43415,0.43415,0.43415,0.43415,0.43415,0.43415,0.43415,0.43415,0.43415,0.43415,0.43415,0.43414,0.43414,0.43413,0.43409,0.4338,0.46319,0.51424,0.55427,0.5785,0.58993,0.58483,0.56047,0.51902,0.46329,0.4338,0.43408,0.43409,0.43406,0.43393,0.43296,0.53166,0.73004,0.92755,1.1249,1.3218,1.5,1.3217,1.1248,0.92748,0.7299,0.53134,0.41853,0.36753,0.31629,0.26988,0.31634,0.36772,0.41969,0.43378,0.43394,0.43397,0.43391,0.4334,0.46572,0.51661,0.56348,0.60405,0.63636,0.65881,0.67032,0.67032,0.65882,0.63637,0.60407,0.5635,0.51664,0.46576,0.43345,0.43398,0.43408,0.43412,0.43414,0.43416,0.43417,0.4342,0.43426,0.43569,0.44969,0.45746,0.45546,0.44456,0.43387,0.43406,0.4341,0.43412,0.43413,0.43413,0.43414,0.43414,0.43414,0.43414,0.43415,0.43415,0.43415,0.43415,0.43415,0.43415,0.43415,0.43415,0.43415,0.43415,0.43415,0.43415,0.43415,0.43415,0.43415,0.43415,0.43415,0.43415,0.43415,0.43414,0.43414,0.43413,0.43409,0.4338,0.46319,0.51424,0.55427,0.5785,0.58993,0.58483,0.56047,0.51902,0.46329,0.4338,0.43408,0.43409,0.43406,0.43393,0.43296,0.53166,0.73004,0.92755,1.1249,1.3218,1.5,1.3217,1.1248,0.92748,0.7299,0.53134,0.41853,0.36753,0.31629,0.26988,0.31634,0.36772,0.41969,0.43378,0.43394,0.43397,0.43391,0.4334,0.46572,0.51661,0.56348,0.60405,0.63636,0.65881,0.67032,0.67032,0.65882,0.63637,0.60407,0.5635,0.51664,0.46576,0.43345,0.43398,0.43408,0.43412,0.43414,0.43416,0.43417,0.4342,0.43426,0.43569,0.44969,0.45746,0.45546,0.44456,0.43387,0.43406,0.4341,0.43412,0.43413,0.43413,0.43414,0.43414,0.43414,0.43414,0.43415,0.43415,0.43415,0.43415,0.43415,0.43415,0.43415,0.43415,0.43415,0.43415,0.43415,0.43415,0.43415,0.43415,0.43415,0.43415,0.43415,0.43415,0.43415,0.43414,0.43414,0.43413,0.43409,0.4338,0.46319,0.51424,0.55427,0.5785,0.58993,0.58483,0.56047,0.51902,0.46329,0.4338,0.43408,0.43409,0.43406,0.43393,0.43296,0.53166,0.73004,0.92755,1.1249,1.3218,1.5,1.3217,1.1248,0.92748,0.7299,0.53134,0.41853,0.36753,0.31629,0.26988,0.31634,0.36772,0.41969,0.43378,0.43394,0.43397,0.43391,0.4334,0.46572,0.51661,0.56348,0.60405,0.63636,0.65881,0.67032,0.67032,0.65882,0.63637,0.60407,0.5635,0.51664,0.46576,0.43345,0.43398,0.43408,0.43412,0.43414,0.43416,0.43417,0.4342,0.43426,0.43569,0.44969,0.45746,0.45546,0.44456,0.43387,0.43406,0.4341,0.43412,0.43413,0.43413,0.43414,0.43414,0.43414,0.43414,0.43415,0.43415,0.43415,0.43415,0.43415,0.43415,0.43415,0.43415,0.43415,0.43415,0.43415,0.43415,0.43415,0.43415,0.43415,0.43415,0.43415,0.43415,0.43415,0.43414,0.43414,0.43413,0.43409
