'Elapsed time','FECG','UC'
'hh:mm:ss.mmm','mV','mV'
'0:00.000',-104.315,60.875
'0:00.002',0.150,1.315
'0:00.004',83.360,0.000
'0:00.006',0.060,0.000
'0:00.008',0.000,0.010
'0:00.010',0.000,0.005
'0:00.012',0.000,0.010
'0:00.014',0.010,0.010
'0:00.016',0.780,-145.760
'0:00.018',87.650,0.000
'0:00.020',4.845,0.725
'0:00.022',4.840,0.715
'0:00.024',4.815,0.725
'0:00.026',4.825,0.715
'0:00.028',4.810,0.720
'0:00.030',4.820,0.720
'0:00.032',4.850,0.715
'0:00.034',4.845,0.720
'0:00.036',4.845,0.725
'0:00.038',4.845,0.730
'0:00.040',4.840,0.730
'0:00.042',4.850,0.705
'0:00.044',4.815,0.730
'0:00.046',4.815,0.720
'0:00.048',4.830,0.725
'0:00.050',4.840,0.735
'0:00.052',4.845,0.720
'0:00.054',4.845,0.730
'0:00.056',4.835,0.720
'0:00.058',4.865,0.720
'0:00.060',4.840,0.720
'0:00.062',4.825,0.720
'0:00.064',4.820,0.725
'0:00.066',4.820,0.730
'0:00.068',4.830,0.725
'0:00.070',4.835,0.725
'0:00.072',4.830,0.720
'0:00.074',4.855,0.725
'0:00.076',4.845,0.730
'0:00.078',4.840,0.715
'0:00.080',4.825,0.725
'0:00.082',4.830,0.720
'0:00.084',4.840,0.730
'0:00.086',4.815,0.720
'0:00.088',4.810,0.720
'0:00.090',4.835,0.725
'0:00.092',4.830,0.725
'0:00.094',4.835,0.725
'0:00.096',4.825,0.710
'0:00.098',4.845,0.720
'0:00.100',4.860,0.730
'0:00.102',4.840,0.730
'0:00.104',4.825,0.730
'0:00.106',4.825,0.720
'0:00.108',4.835,0.720
'0:00.110',4.825,0.725
'0:00.112',4.810,0.730
'0:00.114',4.850,0.715
'0:00.116',4.850,0.730
'0:00.118',4.850,0.730
'0:00.120',4.835,0.730
'0:00.122',4.850,0.725
'0:00.124',4.835,0.725
'0:00.126',4.815,0.720
'0:00.128',4.815,0.720
'0:00.130',4.830,0.730
'0:00.132',4.840,0.715
'0:00.134',4.840,0.730
'0:00.136',4.845,0.725
'0:00.138',4.860,0.735
'0:00.140',4.850,0.725
'0:00.142',4.830,0.710
'0:00.144',4.820,0.725
'0:00.146',4.810,0.720
'0:00.148',4.830,0.725
'0:00.150',4.835,0.725
'0:00.152',4.845,0.725
'0:00.154',4.845,0.715
'0:00.156',4.840,0.730
'0:00.158',4.840,0.715
'0:00.160',4.830,0.720
'0:00.162',4.840,0.725
'0:00.164',4.820,0.720
'0:00.166',4.820,0.725
'0:00.168',4.820,0.730
'0:00.170',4.835,0.735
'0:00.172',4.835,0.715
'0:00.174',4.835,0.720
'0:00.176',4.850,0.725
'0:00.178',4.850,0.725
'0:00.180',4.835,0.715
'0:00.182',4.830,0.720
'0:00.184',4.845,0.735
'0:00.186',4.820,0.725
'0:00.188',4.820,0.720
'0:00.190',4.825,0.720
'0:00.192',4.835,0.715
'0:00.194',4.830,0.725
'0:00.196',4.825,0.725
'0:00.198',4.860,0.715
'0:00.200',4.855,0.725
'0:00.202',4.845,0.725
'0:00.204',4.840,0.735
'0:00.206',4.840,0.715
'0:00.208',4.825,0.720
'0:00.210',4.810,0.715
'0:00.212',4.835,0.730
'0:00.214',4.835,0.720
'0:00.216',4.845,0.725
'0:00.218',4.850,0.725
'0:00.220',4.840,0.720
'0:00.222',4.860,0.730
'0:00.224',4.840,0.715
'0:00.226',4.815,0.725
'0:00.228',4.820,0.725
'0:00.230',4.830,0.725
'0:00.232',4.825,0.725
'0:00.234',4.835,0.720
'0:00.236',4.860,0.730
'0:00.238',4.845,0.720
'0:00.240',4.840,0.730
'0:00.242',4.835,0.715
'0:00.244',4.830,0.725
'0:00.246',4.825,0.720
'0:00.248',4.810,0.725
'0:00.250',4.830,0.725
'0:00.252',4.835,0.730
'0:00.254',4.840,0.730
'0:00.256',4.840,0.720
'0:00.258',4.840,0.715
'0:00.260',4.855,0.725
'0:00.262',4.845,0.725
'0:00.264',4.830,0.725
'0:00.266',4.825,0.715
'0:00.268',4.820,0.725
'0:00.270',4.830,0.725
'0:00.272',4.835,0.725
'0:00.274',4.830,0.725
'0:00.276',4.840,0.710
'0:00.278',4.845,0.715
'0:00.280',4.850,0.730
'0:00.282',4.840,0.715
'0:00.284',4.830,0.730
'0:00.286',4.845,0.730
'0:00.288',4.830,0.725
'0:00.290',4.820,0.720
'0:00.292',4.835,0.725
'0:00.294',4.840,0.715
'0:00.296',4.835,0.725
'0:00.298',4.830,0.720
'0:00.300',4.855,0.730
'0:00.302',4.860,0.730
'0:00.304',4.845,0.715
'0:00.306',4.835,0.720
'0:00.308',4.815,0.715
'0:00.310',4.830,0.725
'0:00.312',4.815,0.720
'0:00.314',4.825,0.720
'0:00.316',4.850,0.730
'0:00.318',4.850,0.730
'0:00.320',4.855,0.730
'0:00.322',4.845,0.720
'0:00.324',4.855,0.725
'0:00.326',4.825,0.705
'0:00.328',4.815,0.725
'0:00.330',4.820,0.715
'0:00.332',4.830,0.725
'0:00.334',4.840,0.730
'0:00.336',4.840,0.725
'0:00.338',4.850,0.730
'0:00.340',4.850,0.730
'0:00.342',4.835,0.725
'0:00.344',4.835,0.710
'0:00.346',4.825,0.720
'0:00.348',4.840,0.720
'0:00.350',4.830,0.730
'0:00.352',4.820,0.730
'0:00.354',4.850,0.715
'0:00.356',4.840,0.730
'0:00.358',4.840,0.720
'0:00.360',4.840,0.725
'0:00.362',4.835,0.705
'0:00.364',4.840,0.715
'0:00.366',4.830,0.725
'0:00.368',4.835,0.725
'0:00.370',4.830,0.720
'0:00.372',4.835,0.730
'0:00.374',4.830,0.720
'0:00.376',4.825,0.725
'0:00.378',4.855,0.720
'0:00.380',4.845,0.710
'0:00.382',4.840,0.730
'0:00.384',4.845,0.730
'0:00.386',4.855,0.730
'0:00.388',4.830,0.725
'0:00.390',4.825,0.720
'0:00.392',4.835,0.725
'0:00.394',4.825,0.710
'0:00.396',4.835,0.720
'0:00.398',4.825,0.715
'0:00.400',4.845,0.725
'0:00.402',4.860,0.735
'0:00.404',4.850,0.725
'0:00.406',4.830,0.730
'0:00.408',4.820,0.720
'0:00.410',4.825,0.715
'0:00.412',4.815,0.715
'0:00.414',4.815,0.725
'0:00.416',4.850,0.720
'0:00.418',4.855,0.740
'0:00.420',4.850,0.730
'0:00.422',4.845,0.710
'0:00.424',4.835,0.715
'0:00.426',4.840,0.720
'0:00.428',4.830,0.715
'0:00.430',4.810,0.730
'0:00.432',4.810,0.730
'0:00.434',4.850,0.715
'0:00.436',4.840,0.730
'0:00.438',4.845,0.730
'0:00.440',4.840,0.730
'0:00.442',4.825,0.715
'0:00.444',4.855,0.710
'0:00.446',4.825,0.720
'0:00.448',4.820,0.720
'0:00.450',4.835,0.735
'0:00.452',4.835,0.715
'0:00.454',4.835,0.720
'0:00.456',4.840,0.730
'0:00.458',4.855,0.725
'0:00.460',4.845,0.715
'0:00.462',4.825,0.725
'0:00.464',4.830,0.725
'0:00.466',4.820,0.720
'0:00.468',4.835,0.725
'0:00.470',4.830,0.720
'0:00.472',4.850,0.730
'0:00.474',4.850,0.730
'0:00.476',4.830,0.720
'0:00.478',4.830,0.705
'0:00.480',4.820,0.725
'0:00.482',4.830,0.730
'0:00.484',4.825,0.720
'0:00.486',4.825,0.725
'0:00.488',4.845,0.730
'0:00.490',4.845,0.730
'0:00.492',4.835,0.710
'0:00.494',4.825,0.715
'0:00.496',4.850,0.715
'0:00.498',4.825,0.730
'0:00.500',4.820,0.730
'0:00.502',4.835,0.715
'0:00.504',4.845,0.725
'0:00.506',4.840,0.735
'0:00.508',4.840,0.725
'0:00.510',4.860,0.720
'0:00.512',4.845,0.720
'0:00.514',4.825,0.725
'0:00.516',4.820,0.730
'0:00.518',4.835,0.715
'0:00.520',4.835,0.725
'0:00.522',4.830,0.730
'0:00.524',4.850,0.725
'0:00.526',4.840,0.710
'0:00.528',4.835,0.725
'0:00.530',4.825,0.730
'0:00.532',4.850,0.725
'0:00.534',4.825,0.720
'0:00.536',4.820,0.730
'0:00.538',4.840,0.730
'0:00.540',4.845,0.720
'0:00.542',4.825,0.725
'0:00.544',4.835,0.720
'0:00.546',4.860,0.720
'0:00.548',4.835,0.715
'0:00.550',4.820,0.730
'0:00.552',4.825,0.730
'0:00.554',4.830,0.730
'0:00.556',4.830,0.715
'0:00.558',4.820,0.720
'0:00.560',4.845,0.715
'0:00.562',4.840,0.720
'0:00.564',4.830,0.720
'0:00.566',4.830,0.720
'0:00.568',4.820,0.730
'0:00.570',4.835,0.720
'0:00.572',4.825,0.725
'0:00.574',4.815,0.730
'0:00.576',4.845,0.705
'0:00.578',4.840,0.725
'0:00.580',4.840,0.720
'0:00.582',4.835,0.725
'0:00.584',4.845,0.715
'0:00.586',4.835,0.730
'0:00.588',4.825,0.725
'0:00.590',4.820,0.725
'0:00.592',4.840,0.720
'0:00.594',4.835,0.710
'0:00.596',4.840,0.720
'0:00.598',4.835,0.730
'0:00.600',4.855,0.725
'0:00.602',4.835,0.725
'0:00.604',4.820,0.730
'0:00.606',4.835,0.730
'0:00.608',4.825,0.715
'0:00.610',4.830,0.730
'0:00.612',4.835,0.725
'0:00.614',4.830,0.725
'0:00.616',4.860,0.725
'0:00.618',4.845,0.730
'0:00.620',4.835,0.720
'0:00.622',4.830,0.730
'0:00.624',4.830,0.720
'0:00.626',4.815,0.710
'0:00.628',4.820,0.715
'0:00.630',4.855,0.720
'0:00.632',4.850,0.725
'0:00.634',4.850,0.735
'0:00.636',4.850,0.725
'0:00.638',4.845,0.725
'0:00.640',4.845,0.720
'0:00.642',4.820,0.730
'0:00.644',4.805,0.720
'0:00.646',4.835,0.720
'0:00.648',4.830,0.720
'0:00.650',4.840,0.725
'0:00.652',4.845,0.730
'0:00.654',4.865,0.710
'0:00.656',4.850,0.720
'0:00.658',4.830,0.720
'0:00.660',4.825,0.720
'0:00.662',4.815,0.725
'0:00.664',4.825,0.715
'0:00.666',4.830,0.735
'0:00.668',4.830,0.725
'0:00.670',4.870,0.725
'0:00.672',4.850,0.730
'0:00.674',4.845,0.710
'0:00.676',4.825,0.720
'0:00.678',4.815,0.710
'0:00.680',4.825,0.725
'0:00.682',4.825,0.725
'0:00.684',4.830,0.725
'0:00.686',4.870,0.725
'0:00.688',4.855,0.715
'0:00.690',4.850,0.725
'0:00.692',4.830,0.725
'0:00.694',4.815,0.720
'0:00.696',4.820,0.715
'0:00.698',4.815,0.725
'0:00.700',4.820,0.730
'0:00.702',4.855,0.725
'0:00.704',4.855,0.720
'0:00.706',4.850,0.730
'0:00.708',4.840,0.730
'0:00.710',4.845,0.720
'0:00.712',4.815,0.720
'0:00.714',4.830,0.715
'0:00.716',4.820,0.735
'0:00.718',4.825,0.740
'0:00.720',4.860,0.715
'0:00.722',4.845,0.720
'0:00.724',4.845,0.730
'0:00.726',4.830,0.720
'0:00.728',4.860,0.715
'0:00.730',4.830,0.720
'0:00.732',4.820,0.735
'0:00.734',4.835,0.730
'0:00.736',4.835,0.725
'0:00.738',4.840,0.720
'0:00.740',4.830,0.725
'0:00.742',4.835,0.715
'0:00.744',4.850,0.725
'0:00.746',4.845,0.710
'0:00.748',4.830,0.725
'0:00.750',4.835,0.725
'0:00.752',4.830,0.725
'0:00.754',4.825,0.720
'0:00.756',4.835,0.725
'0:00.758',4.840,0.720
'0:00.760',4.845,0.720
'0:00.762',4.840,0.710
'0:00.764',4.835,0.710
'0:00.766',4.830,0.725
'0:00.768',4.825,0.730
'0:00.770',4.840,0.730
'0:00.772',4.835,0.725
'0:00.774',4.830,0.720
'0:00.776',4.850,0.720
'0:00.778',4.840,0.725
'0:00.780',4.840,0.725
'0:00.782',4.825,0.720
'0:00.784',4.830,0.725
'0:00.786',4.825,0.730
'0:00.788',4.830,0.725
'0:00.790',4.835,0.735
'0:00.792',4.830,0.720
'0:00.794',4.855,0.720
'0:00.796',4.840,0.720
'0:00.798',4.830,0.735
'0:00.800',4.830,0.740
'0:00.802',4.840,0.720
'0:00.804',4.825,0.735
'0:00.806',4.830,0.730
'0:00.808',4.850,0.730
'0:00.810',4.845,0.715
'0:00.812',4.840,0.720
'0:00.814',4.840,0.735
'0:00.816',4.850,0.730
'0:00.818',4.840,0.725
'0:00.820',4.820,0.720
'0:00.822',4.830,0.730
'0:00.824',4.825,0.725
'0:00.826',4.830,0.730
'0:00.828',4.820,0.715
'0:00.830',4.825,0.725
'0:00.832',4.865,0.735
'0:00.834',4.855,0.725
'0:00.836',4.840,0.730
'0:00.838',4.840,0.730
'0:00.840',4.840,0.725
'0:00.842',4.810,0.715
'0:00.844',4.810,0.725
'0:00.846',4.820,0.720
'0:00.848',4.835,0.730
'0:00.850',4.840,0.720
'0:00.852',4.855,0.720
'0:00.854',4.860,0.725
'0:00.856',4.850,0.735
'0:00.858',4.830,0.710
'0:00.860',4.810,0.715
'0:00.862',4.825,0.720
'0:00.864',4.810,0.735
'0:00.866',4.820,0.730
'0:00.868',4.845,0.715
'0:00.870',4.845,0.730
'0:00.872',4.850,0.730
'0:00.874',4.835,0.735
'0:00.876',4.845,0.705
'0:00.878',4.835,0.720
'0:00.880',4.820,0.720
'0:00.882',4.830,0.735
'0:00.884',4.830,0.715
'0:00.886',4.840,0.725
'0:00.888',4.830,0.730
'0:00.890',4.855,0.725
'0:00.892',4.835,0.730
'0:00.894',4.840,0.720
'0:00.896',4.835,0.730
'0:00.898',4.845,0.725
'0:00.900',4.825,0.725
'0:00.902',4.820,0.720
'0:00.904',4.855,0.730
'0:00.906',4.840,0.725
'0:00.908',4.840,0.725
'0:00.910',4.835,0.715
'0:00.912',4.845,0.730
'0:00.914',4.825,0.715
'0:00.916',4.820,0.725
'0:00.918',4.840,0.725
'0:00.920',4.845,0.730
'0:00.922',4.845,0.775
'0:00.924',4.840,0.720
'0:00.926',4.850,0.720
'0:00.928',4.825,0.720
'0:00.930',4.805,0.725
'0:00.932',4.835,0.715
'0:00.934',4.845,0.725
'0:00.936',4.850,0.725
'0:00.938',4.845,0.730
'0:00.940',4.835,0.715
'0:00.942',4.835,0.715
'0:00.944',4.815,0.715
'0:00.946',4.820,0.730
'0:00.948',4.825,0.725
'0:00.950',4.845,0.725
'0:00.952',4.840,0.730
'0:00.954',4.840,0.725
'0:00.956',4.855,0.730
'0:00.958',4.820,0.710
'0:00.960',4.810,0.720
'0:00.962',4.820,0.725
'0:00.964',4.835,0.715
'0:00.966',4.840,0.730
'0:00.968',4.845,0.720
'0:00.970',4.855,0.735
'0:00.972',4.850,0.730
'0:00.974',4.835,0.720
'0:00.976',4.820,0.715
'0:00.978',4.815,0.720
'0:00.980',4.825,0.720
'0:00.982',4.830,0.710
'0:00.984',4.835,0.730
'0:00.986',4.865,0.725
'0:00.988',4.850,0.730
'0:00.990',4.840,0.720
'0:00.992',4.835,0.710
'0:00.994',4.830,0.720
'0:00.996',4.830,0.720
'0:00.998',4.820,0.730
'0:01.000',4.830,0.725
'0:01.002',4.845,0.730
'0:01.004',4.855,0.725
'0:01.006',4.850,0.725
'0:01.008',4.840,0.725
'0:01.010',4.830,0.720
'0:01.012',4.860,0.710
'0:01.014',4.830,0.725
'0:01.016',4.820,0.735
'0:01.018',4.840,0.725
'0:01.020',4.835,0.730
'0:01.022',4.845,0.715
'0:01.024',4.840,0.720
'0:01.026',4.835,0.725
'0:01.028',4.865,0.730
'0:01.030',4.845,0.720
'0:01.032',4.830,0.725
'0:01.034',4.830,0.730
'0:01.036',4.825,0.725
'0:01.038',4.835,0.730
'0:01.040',4.830,0.715
'0:01.042',4.820,0.720
'0:01.044',4.845,0.725
'0:01.046',4.845,0.715
'0:01.048',4.825,0.730
'0:01.050',4.825,0.735
'0:01.052',4.840,0.735
'0:01.054',4.835,0.715
'0:01.056',4.835,0.725
'0:01.058',4.845,0.720
'0:01.060',4.850,0.720
'0:01.062',4.835,0.720
'0:01.064',4.825,0.720
'0:01.066',4.835,0.720
'0:01.068',4.830,0.730
'0:01.070',4.830,0.730
'0:01.072',4.855,0.715
'0:01.074',4.840,0.720
'0:01.076',4.850,0.715
'0:01.078',4.835,0.720
'0:01.080',4.815,0.730
'0:01.082',4.835,0.720
'0:01.084',4.835,0.725
'0:01.086',4.835,0.720
'0:01.088',4.845,0.735
'0:01.090',4.860,0.725
'0:01.092',4.835,0.720
'0:01.094',4.825,0.720
'0:01.096',4.830,0.720
'0:01.098',4.815,0.725
'0:01.100',4.830,0.725
'0:01.102',4.855,0.730
'0:01.104',4.850,0.725
'0:01.106',4.845,0.725
'0:01.108',4.840,0.705
'0:01.110',4.830,0.725
'0:01.112',4.830,0.725
'0:01.114',4.810,0.715
'0:01.116',4.820,0.730
'0:01.118',4.840,0.720
'0:01.120',4.850,0.730
'0:01.122',4.845,0.725
'0:01.124',4.850,0.710
'0:01.126',4.840,0.730
'0:01.128',4.840,0.725
'0:01.130',4.820,0.735
'0:01.132',4.820,0.725
'0:01.134',4.840,0.710
'0:01.136',4.835,0.730
'0:01.138',4.840,0.725
'0:01.140',4.840,0.725
'0:01.142',4.845,0.710
'0:01.144',4.845,0.715
'0:01.146',4.835,0.710
'0:01.148',4.825,0.730
'0:01.150',4.825,0.725
'0:01.152',4.840,0.720
'0:01.154',4.825,0.730
'0:01.156',4.825,0.730
'0:01.158',4.830,0.720
'0:01.160',4.845,0.725
'0:01.162',4.835,0.715
'0:01.164',4.840,0.725
'0:01.166',4.845,0.735
'0:01.168',4.850,0.730
'0:01.170',4.835,0.735
'0:01.172',4.825,0.715
'0:01.174',4.820,0.725
'0:01.176',4.820,0.720
'0:01.178',4.840,0.715
'0:01.180',4.820,0.725
'0:01.182',4.835,0.730
'0:01.184',4.855,0.730
'0:01.186',4.860,0.730
'0:01.188',4.835,0.720
'0:01.190',4.830,0.720
'0:01.192',4.805,0.720
'0:01.194',4.815,0.715
'0:01.196',4.825,0.720
'0:01.198',4.820,0.715
'0:01.200',4.845,0.725
'0:01.202',4.855,0.735
'0:01.204',4.860,0.735
'0:01.206',4.845,0.725
'0:01.208',4.835,0.720
'0:01.210',4.830,0.725
'0:01.212',4.825,0.725
'0:01.214',4.815,0.725
'0:01.216',4.825,0.720
'0:01.218',4.845,0.725
'0:01.220',4.850,0.730
'0:01.222',4.840,0.740
'0:01.224',4.840,0.725
'0:01.226',4.860,0.705
'0:01.228',4.845,0.725
'0:01.230',4.825,0.730
'0:01.232',4.830,0.730
'0:01.234',4.830,0.725
'0:01.236',4.835,0.720
'0:01.238',4.835,0.730
'0:01.240',4.830,0.730
'0:01.242',4.845,0.725
'0:01.244',4.840,0.715
'0:01.246',4.840,0.730
'0:01.248',4.825,0.715
'0:01.250',4.840,0.730
'0:01.252',4.835,0.725
'0:01.254',4.830,0.735
'0:01.256',4.825,0.720
'0:01.258',4.825,0.725
'0:01.260',4.830,0.710
'0:01.262',4.835,0.725
'0:01.264',4.845,0.725
'0:01.266',4.840,0.725
'0:01.268',4.835,0.730
'0:01.270',4.840,0.730
'0:01.272',4.835,0.730
'0:01.274',4.820,0.725
'0:01.276',4.815,0.720
'0:01.278',4.825,0.720
'0:01.280',4.830,0.725
'0:01.282',4.830,0.730
'0:01.284',4.845,0.720
'0:01.286',4.840,0.735
'0:01.288',4.865,0.725
'0:01.290',4.840,0.735
'0:01.292',4.810,0.725
'0:01.294',4.820,0.715
'0:01.296',4.825,0.720
'0:01.298',4.820,0.720
'0:01.300',4.840,0.735
'0:01.302',4.840,0.720
'0:01.304',4.860,0.725
'0:01.306',4.850,0.730
'0:01.308',4.840,0.725
'0:01.310',4.825,0.730
'0:01.312',4.835,0.715
'0:01.314',4.820,0.725
'0:01.316',4.815,0.730
'0:01.318',4.840,0.735
'0:01.320',4.840,0.720
'0:01.322',4.840,0.730
'0:01.324',4.840,0.720
'0:01.326',4.835,0.725
'0:01.328',4.845,0.725
'0:01.330',4.835,0.715
'0:01.332',4.830,0.725
'0:01.334',4.825,0.725
'0:01.336',4.845,0.725
'0:01.338',4.830,0.730
'0:01.340',4.835,0.725
'0:01.342',4.850,0.725
'0:01.344',4.840,0.715
'0:01.346',4.835,0.725
'0:01.348',4.830,0.715
'0:01.350',4.850,0.730
'0:01.352',4.830,0.715
'0:01.354',4.815,0.730
'0:01.356',4.830,0.720
'0:01.358',4.815,0.730
'0:01.360',4.835,0.720
'0:01.362',4.830,0.720
'0:01.364',4.855,0.715
'0:01.366',4.850,0.740
'0:01.368',4.850,0.735
'0:01.370',4.850,0.715
'0:01.372',4.825,0.725
'0:01.374',4.835,0.725
'0:01.376',4.815,0.725
'0:01.378',4.820,0.710
'0:01.380',4.830,0.720
'0:01.382',4.845,0.725
'0:01.384',4.845,0.735
'0:01.386',4.840,0.735
'0:01.388',4.865,0.715
'0:01.390',4.845,0.725
'0:01.392',4.825,0.730
'0:01.394',4.820,0.720
'0:01.396',4.815,0.725
'0:01.398',4.825,0.715
'0:01.400',4.830,0.730
'0:01.402',4.835,0.725
'0:01.404',4.855,0.730
'0:01.406',4.855,0.715
'0:01.408',4.840,0.720
'0:01.410',4.835,0.720
'0:01.412',4.845,0.720
'0:01.414',4.825,0.725
'0:01.416',4.825,0.720
'0:01.418',4.840,0.725
'0:01.420',4.835,0.720
'0:01.422',4.850,0.730
'0:01.424',4.840,0.725
'0:01.426',4.830,0.720
'0:01.428',4.855,0.720
'0:01.430',4.830,0.720
'0:01.432',4.830,0.735
'0:01.434',4.830,0.720
'0:01.436',4.830,0.725
'0:01.438',4.845,0.730
'0:01.440',4.830,0.720
'0:01.442',4.830,0.725
'0:01.444',4.845,0.720
'0:01.446',4.845,0.720
'0:01.448',4.840,0.730
'0:01.450',4.840,0.720
'0:01.452',4.830,0.720
'0:01.454',4.825,0.725
'0:01.456',4.825,0.725
'0:01.458',4.830,0.705
'0:01.460',4.835,0.715
'0:01.462',4.845,0.725
'0:01.464',4.835,0.725
'0:01.466',4.845,0.730
'0:01.468',4.845,0.720
'0:01.470',4.825,0.725
'0:01.472',4.825,0.730
'0:01.474',4.855,0.730
'0:01.476',4.840,0.720
'0:01.478',4.835,0.725
'0:01.480',4.835,0.725
'0:01.482',4.830,0.730
'0:01.484',4.840,0.725
'0:01.486',4.830,0.720
'0:01.488',4.840,0.725
'0:01.490',4.855,0.715
'0:01.492',4.840,0.720
'0:01.494',4.840,0.720
'0:01.496',4.825,0.725
'0:01.498',4.840,0.725
'0:01.500',4.830,0.720
'0:01.502',4.830,0.725
'0:01.504',4.845,0.725
'0:01.506',4.840,0.735
'0:01.508',4.850,0.715
'0:01.510',4.835,0.720
'0:01.512',4.835,0.720
'0:01.514',4.820,0.725
'0:01.516',4.815,0.735
'0:01.518',4.835,0.710
'0:01.520',4.850,0.725
'0:01.522',4.845,0.725
'0:01.524',4.840,0.725
'0:01.526',4.835,0.720
'0:01.528',4.845,0.720
'0:01.530',4.820,0.720
'0:01.532',4.825,0.730
'0:01.534',4.825,0.720
'0:01.536',4.845,0.730
'0:01.538',4.840,0.725
'0:01.540',4.860,0.720
'0:01.542',4.840,0.705
'0:01.544',4.835,0.725
'0:01.546',4.830,0.715
'0:01.548',4.840,0.730
'0:01.550',4.825,0.720
'0:01.552',4.835,0.730
'0:01.554',4.825,0.730
'0:01.556',4.840,0.725
'0:01.558',4.820,0.710
'0:01.560',4.850,0.730
'0:01.562',4.845,0.720
'0:01.564',4.835,0.725
'0:01.566',4.840,0.725
'0:01.568',4.825,0.730
'0:01.570',4.830,0.725
'0:01.572',4.815,0.725
'0:01.574',4.830,0.710
'0:01.576',4.830,0.725
'0:01.578',4.830,0.720
'0:01.580',4.825,0.720
'0:01.582',4.860,0.730
'0:01.584',4.845,0.735
'0:01.586',4.845,0.720
'0:01.588',4.840,0.725
'0:01.590',4.840,0.725
'0:01.592',4.810,0.735
'0:01.594',4.810,0.720
'0:01.596',4.835,0.720
'0:01.598',4.835,0.720
'0:01.600',4.840,0.735
'0:01.602',4.845,0.735
'0:01.604',4.850,0.715
'0:01.606',4.840,0.725
'0:01.608',4.815,0.720
'0:01.610',4.830,0.720
'0:01.612',4.820,0.730
'0:01.614',4.835,0.720
'0:01.616',4.830,0.735
'0:01.618',4.840,0.725
'0:01.620',4.865,0.735
'0:01.622',4.840,0.730
'0:01.624',4.820,0.715
'0:01.626',4.815,0.725
'0:01.628',4.815,0.725
'0:01.630',4.830,0.725
'0:01.632',4.825,0.730
'0:01.634',4.840,0.720
'0:01.636',4.865,0.735
'0:01.638',4.850,0.720
'0:01.640',4.825,0.720
'0:01.642',4.805,0.720
'0:01.644',4.815,0.720
'0:01.646',4.830,0.725
'0:01.648',4.825,0.720
'0:01.650',4.845,0.725
'0:01.652',4.865,0.730
'0:01.654',4.845,0.725
'0:01.656',4.835,0.735
'0:01.658',4.825,0.715
'0:01.660',4.825,0.720
'0:01.662',4.830,0.720
'0:01.664',4.820,0.725
'0:01.666',4.840,0.735
'0:01.668',4.840,0.720
'0:01.670',4.865,0.720
'0:01.672',4.845,0.725
'0:01.674',4.835,0.720
'0:01.676',4.810,0.730
'0:01.678',4.825,0.715
'0:01.680',4.820,0.715
'0:01.682',4.825,0.730
'0:01.684',4.840,0.720
'0:01.686',4.860,0.735
'0:01.688',4.845,0.720
'0:01.690',4.845,0.725
'0:01.692',4.830,0.725
'0:01.694',4.840,0.715
'0:01.696',4.825,0.720
'0:01.698',4.810,0.720
'0:01.700',4.835,0.725
'0:01.702',4.845,0.725
'0:01.704',4.845,0.730
'0:01.706',4.845,0.725
'0:01.708',4.825,0.720
'0:01.710',4.860,0.725
'0:01.712',4.840,0.720
'0:01.714',4.825,0.725
'0:01.716',4.825,0.720
'0:01.718',4.820,0.735
'0:01.720',4.835,0.720
'0:01.722',4.830,0.720
'0:01.724',4.835,0.720
'0:01.726',4.850,0.715
'0:01.728',4.845,0.730
'0:01.730',4.835,0.715
'0:01.732',4.830,0.730
'0:01.734',4.845,0.725
'0:01.736',4.825,0.735
'0:01.738',4.825,0.725
'0:01.740',4.835,0.710
'0:01.742',4.830,0.725
'0:01.744',4.835,0.720
'0:01.746',4.830,0.720
'0:01.748',4.825,0.725
'0:01.750',4.855,0.725
'0:01.752',4.835,0.730
'0:01.754',4.820,0.720
'0:01.756',4.835,0.730
'0:01.758',4.825,0.725
'0:01.760',4.835,0.720
'0:01.762',4.835,0.715
'0:01.764',4.825,0.725
'0:01.766',4.865,0.735
'0:01.768',4.835,0.720
'0:01.770',4.815,0.725
'0:01.772',4.835,0.725
'0:01.774',4.830,0.720
'0:01.776',4.835,0.725
'0:01.778',4.835,0.715
'0:01.780',4.845,0.725
'0:01.782',4.850,0.730
'0:01.784',4.840,0.730
'0:01.786',4.830,0.725
'0:01.788',4.830,0.725
'0:01.790',4.845,0.725
'0:01.792',4.835,0.720
'0:01.794',4.830,0.715
'0:01.796',4.845,0.720
'0:01.798',4.840,0.730
'0:01.800',4.830,0.740
'0:01.802',4.815,0.735
'0:01.804',4.840,0.715
'0:01.806',4.840,0.725
'0:01.808',4.835,0.720
'0:01.810',4.835,0.730
'0:01.812',4.835,0.725
'0:01.814',4.835,0.710
'0:01.816',4.835,0.730
'0:01.818',4.820,0.725
'0:01.820',4.835,0.730
'0:01.822',4.855,0.730
'0:01.824',4.845,0.715
'0:01.826',4.835,0.720
'0:01.828',4.830,0.725
'0:01.830',4.840,0.715
'0:01.832',4.825,0.730
'0:01.834',4.830,0.720
'0:01.836',4.850,0.725
'0:01.838',4.855,0.725
'0:01.840',4.850,0.715
'0:01.842',4.835,0.720
'0:01.844',4.835,0.710
'0:01.846',4.830,0.720
'0:01.848',4.835,0.725
'0:01.850',4.835,0.725
'0:01.852',4.830,0.720
'0:01.854',4.845,0.725
'0:01.856',4.850,0.720
'0:01.858',4.840,0.725
'0:01.860',4.835,0.725
'0:01.862',4.835,0.715
'0:01.864',4.855,0.730
'0:01.866',4.835,0.735
'0:01.868',4.825,0.735
'0:01.870',4.820,0.715
'0:01.872',4.840,0.725
'0:01.874',4.840,0.720
'0:01.876',4.825,0.725
'0:01.878',4.820,0.720
'0:01.880',4.860,0.720
'0:01.882',4.845,0.730
'0:01.884',4.840,0.720
'0:01.886',4.840,0.735
'0:01.888',4.845,0.720
'0:01.890',4.825,0.725
'0:01.892',4.815,0.725
'0:01.894',4.850,0.725
'0:01.896',4.845,0.710
'0:01.898',4.835,0.725
'0:01.900',4.845,0.725
'0:01.902',4.855,0.725
'0:01.904',4.845,0.730
'0:01.906',4.830,0.725
'0:01.908',4.820,0.720
'0:01.910',4.815,0.720
'0:01.912',4.835,0.715
'0:01.914',4.830,0.720
'0:01.916',4.840,0.725
'0:01.918',4.860,0.735
'0:01.920',4.850,0.730
'0:01.922',4.840,0.735
'0:01.924',4.825,0.710
'0:01.926',4.825,0.735
'0:01.928',4.815,0.715
'0:01.930',4.810,0.715
'0:01.932',4.825,0.730
'0:01.934',4.855,0.725
'0:01.936',4.860,0.730
'0:01.938',4.850,0.720
'0:01.940',4.840,0.715
'0:01.942',4.835,0.720
'0:01.944',4.825,0.715
'0:01.946',4.810,0.725
'0:01.948',4.815,0.730
'0:01.950',4.860,0.715
'0:01.952',4.850,0.725
'0:01.954',4.855,0.730
'0:01.956',4.850,0.725
'0:01.958',4.820,0.730
'0:01.960',4.830,0.710
'0:01.962',4.820,0.725
'0:01.964',4.820,0.725
'0:01.966',4.860,0.735
'0:01.968',4.850,0.725
'0:01.970',4.850,0.725
'0:01.972',4.835,0.730
'0:01.974',4.810,0.720
'0:01.976',4.835,0.720
'0:01.978',4.820,0.715
'0:01.980',4.835,0.720
'0:01.982',4.845,0.725
'0:01.984',4.855,0.730
'0:01.986',4.840,0.725
'0:01.988',4.825,0.730
'0:01.990',4.825,0.730
'0:01.992',4.815,0.725
'0:01.994',4.840,0.720
'0:01.996',4.840,0.730
'0:01.998',4.835,0.725
'0:02.000',4.850,0.720
'0:02.002',4.830,0.735
'0:02.004',4.830,0.725
'0:02.006',4.825,0.735
'0:02.008',4.840,0.710
'0:02.010',4.845,0.730
'0:02.012',4.845,0.715
'0:02.014',4.825,0.720
'0:02.016',4.830,0.740
'0:02.018',4.840,0.715
'0:02.020',4.830,0.725
'0:02.022',4.825,0.735
'0:02.024',4.855,0.725
'0:02.026',4.835,0.730
'0:02.028',4.840,0.710
'0:02.030',4.830,0.725
'0:02.032',4.825,0.725
'0:02.034',4.840,0.725
'0:02.036',4.830,0.720
'0:02.038',4.825,0.720
'0:02.040',4.850,0.720
'0:02.042',4.825,0.715
'0:02.044',4.835,0.725
'0:02.046',4.825,0.710
'0:02.048',4.825,0.720
'0:02.050',4.855,0.730
'0:02.052',4.830,0.720
'0:02.054',4.810,0.725
'0:02.056',4.840,0.725
'0:02.058',4.825,0.730
'0:02.060',4.830,0.720
'0:02.062',4.820,0.710
'0:02.064',4.830,0.720
'0:02.066',4.860,0.730
'0:02.068',4.845,0.730
'0:02.070',4.840,0.735
'0:02.072',4.835,0.720
'0:02.074',4.820,0.725
'0:02.076',4.825,0.725
'0:02.078',4.825,0.725
'0:02.080',4.825,0.725
'0:02.082',4.860,0.715
'0:02.084',4.850,0.730
'0:02.086',4.845,0.735
'0:02.088',4.850,0.730
'0:02.090',4.845,0.720
'0:02.092',4.830,0.725
'0:02.094',4.815,0.720
'0:02.096',4.810,0.725
'0:02.098',4.840,0.725
'0:02.100',4.850,0.715
'0:02.102',4.840,0.730
'0:02.104',4.845,0.725
'0:02.106',4.845,0.720
'0:02.108',4.845,0.725
'0:02.110',4.825,0.720
'0:02.112',4.820,0.720
'0:02.114',4.825,0.730
'0:02.116',4.825,0.735
'0:02.118',4.840,0.730
'0:02.120',4.835,0.725
'0:02.122',4.840,0.730
'0:02.124',4.865,0.725
'0:02.126',4.835,0.710
'0:02.128',4.835,0.720
'0:02.130',4.825,0.715
'0:02.132',4.830,0.730
'0:02.134',4.820,0.725
'0:02.136',4.820,0.730
'0:02.138',4.855,0.725
'0:02.140',4.850,0.720
'0:02.142',4.835,0.715
'0:02.144',4.830,0.715
'0:02.146',4.840,0.715
'0:02.148',4.820,0.730
'0:02.150',4.825,0.735
'0:02.152',4.845,0.710
'0:02.154',4.840,0.725
'0:02.156',4.845,0.725
'0:02.158',4.835,0.725
'0:02.160',4.845,0.705
'0:02.162',4.845,0.720
'0:02.164',4.825,0.725
'0:02.166',4.825,0.735
'0:02.168',4.835,0.730
'0:02.170',4.840,0.725
'0:02.172',4.840,0.730
'0:02.174',4.840,0.720
'0:02.176',4.855,0.720
'0:02.178',4.825,0.720
'0:02.180',4.815,0.715
'0:02.182',4.835,0.730
'0:02.184',4.845,0.720
'0:02.186',4.845,0.730
'0:02.188',4.840,0.725
'0:02.190',4.865,0.725
'0:02.192',4.820,0.720
'0:02.194',4.815,0.715
'0:02.196',4.820,0.715
'0:02.198',4.835,0.725
'0:02.200',4.840,0.730
'0:02.202',4.845,0.725
'0:02.204',4.850,0.730
'0:02.206',4.850,0.725
'0:02.208',4.815,0.720
'0:02.210',4.815,0.720
'0:02.212',4.820,0.720
'0:02.214',4.840,0.725
'0:02.216',4.835,0.725
'0:02.218',4.830,0.720
'0:02.220',4.860,0.715
'0:02.222',4.835,0.725
'0:02.224',4.825,0.720
'0:02.226',4.815,0.720
'0:02.228',4.830,0.720
'0:02.230',4.835,0.725
'0:02.232',4.835,0.725
'0:02.234',4.855,0.730
'0:02.236',4.845,0.725
'0:02.238',4.845,0.725
'0:02.240',4.830,0.710
'0:02.242',4.825,0.730
'0:02.244',4.815,0.710
'0:02.246',4.815,0.720
'0:02.248',4.835,0.725
'0:02.250',4.840,0.730
'0:02.252',4.845,0.735
'0:02.254',4.840,0.730
'0:02.256',4.865,0.725
'0:02.258',4.840,0.720
'0:02.260',4.835,0.725
'0:02.262',4.825,0.715
'0:02.264',4.805,0.715
'0:02.266',4.830,0.730
'0:02.268',4.835,0.710
'0:02.270',4.835,0.730
'0:02.272',4.855,0.725
'0:02.274',4.850,0.720
'0:02.276',4.835,0.725
'0:02.278',4.840,0.715
'0:02.280',4.845,0.720
'0:02.282',4.835,0.730
'0:02.284',4.830,0.735
'0:02.286',4.830,0.725
'0:02.288',4.840,0.725
'0:02.290',4.840,0.725
'0:02.292',4.825,0.725
'0:02.294',4.830,0.720
'0:02.296',4.845,0.705
'0:02.298',4.850,0.720
'0:02.300',4.845,0.725
'0:02.302',4.830,0.725
'0:02.304',4.835,0.730
'0:02.306',4.830,0.720
'0:02.308',4.825,0.720
'0:02.310',4.825,0.720
'0:02.312',4.835,0.715
'0:02.314',4.850,0.720
'0:02.316',4.845,0.720
'0:02.318',4.835,0.720
'0:02.320',4.825,0.725
'0:02.322',4.830,0.720
'0:02.324',4.830,0.730
'0:02.326',4.815,0.720
'0:02.328',4.835,0.725
'0:02.330',4.850,0.725
'0:02.332',4.840,0.720
'0:02.334',4.840,0.725
'0:02.336',4.835,0.730
'0:02.338',4.815,0.725
'0:02.340',4.830,0.720
'0:02.342',4.820,0.715
'0:02.344',4.835,0.720
'0:02.346',4.845,0.720
'0:02.348',4.835,0.730
'0:02.350',4.845,0.720
'0:02.352',4.830,0.735
'0:02.354',4.835,0.725
'0:02.356',4.830,0.730
'0:02.358',4.820,0.730
'0:02.360',4.860,0.705
'0:02.362',4.845,0.730
'0:02.364',4.835,0.715
'0:02.366',4.835,0.730
'0:02.368',4.830,0.735
'0:02.370',4.840,0.715
'0:02.372',4.835,0.720
'0:02.374',4.830,0.725
'0:02.376',4.855,0.725
'0:02.378',4.845,0.720
'0:02.380',4.840,0.715
'0:02.382',4.830,0.730
'0:02.384',4.825,0.725
'0:02.386',4.845,0.725
'0:02.388',4.825,0.730
'0:02.390',4.590,0.715
'0:02.392',4.840,0.730
'0:02.394',4.850,0.720
'0:02.396',4.830,0.720
'0:02.398',4.830,0.720
'0:02.400',4.840,0.735
'0:02.402',4.815,0.730
'0:02.404',4.830,0.735
'0:02.406',4.830,0.720
'0:02.408',4.820,0.730
'0:02.410',4.850,0.720
'0:02.412',4.840,0.720
'0:02.414',4.830,0.730
'0:02.416',4.840,0.725
'0:02.418',4.850,0.730
'0:02.420',4.825,0.730
'0:02.422',4.820,0.730
'0:02.424',4.825,0.710
'0:02.426',4.825,0.710
'0:02.428',4.830,0.715
'0:02.430',4.835,0.730
'0:02.432',4.830,0.730
'0:02.434',4.865,0.715
'0:02.436',4.845,0.720
'0:02.438',4.845,0.725
'0:02.440',4.825,0.725
'0:02.442',4.830,0.710
'0:02.444',4.815,0.710
'0:02.446',4.815,0.715
'0:02.448',4.840,0.715
'0:02.450',4.845,0.725
'0:02.452',4.855,0.715
'0:02.454',4.845,0.720
'0:02.456',4.850,0.725
'0:02.458',4.845,0.715
'0:02.460',4.820,0.710
'0:02.462',4.825,0.715
'0:02.464',4.820,0.720
'0:02.466',4.835,0.730
'0:02.468',4.825,0.715
'0:02.470',4.830,0.725
'0:02.472',4.855,0.735
'0:02.474',4.840,0.710
'0:02.476',4.835,0.725
'0:02.478',4.840,0.705
'0:02.480',4.825,0.725
'0:02.482',4.835,0.730
'0:02.484',4.830,0.715
'0:02.486',4.825,0.720
'0:02.488',4.840,0.730
'0:02.490',4.845,0.725
'0:02.492',4.830,0.710
'0:02.494',4.825,0.720
'0:02.496',4.860,0.715
'0:02.498',4.840,0.720
'0:02.500',4.835,0.730
'0:02.502',4.835,0.715
'0:02.504',4.825,0.725
'0:02.506',4.830,0.715
'0:02.508',4.820,0.725
'0:02.510',4.840,0.710
'0:02.512',4.850,0.710
'0:02.514',4.845,0.720
'0:02.516',4.845,0.725
'0:02.518',4.835,0.730
'0:02.520',4.830,0.710
'0:02.522',4.830,0.720
'0:02.524',4.815,0.720
'0:02.526',4.825,0.715
'0:02.528',4.845,0.725
'0:02.530',4.840,0.700
'0:02.532',4.845,0.725
'0:02.534',4.845,0.720
'0:02.536',4.835,0.715
'0:02.538',4.830,0.725
'0:02.540',4.830,0.710
'0:02.542',4.820,0.715
'0:02.544',4.835,0.710
'0:02.546',4.840,0.715
'0:02.548',4.835,0.715
'0:02.550',4.840,0.720
'0:02.552',4.845,0.725
'0:02.554',4.820,0.715
'0:02.556',4.825,0.720
'0:02.558',4.835,0.710
'0:02.560',4.840,0.715
'0:02.562',4.835,0.725
'0:02.564',4.845,0.725
'0:02.566',4.850,0.710
'0:02.568',4.825,0.720
'0:02.570',4.840,0.725
'0:02.572',4.825,0.725
'0:02.574',4.820,0.720
'0:02.576',4.825,0.710
'0:02.578',4.840,0.720
'0:02.580',4.845,0.720
'0:02.582',4.840,0.720
'0:02.584',4.850,0.725
'0:02.586',4.850,0.715
'0:02.588',4.835,0.720
'0:02.590',4.820,0.715
'0:02.592',4.815,0.720
'0:02.594',4.835,0.720
'0:02.596',4.845,0.705
'0:02.598',4.840,0.720
'0:02.600',4.845,0.720
'0:02.602',4.855,0.725
'0:02.604',4.850,0.725
'0:02.606',4.830,0.715
'0:02.608',4.815,0.725
'0:02.610',4.810,0.710
'0:02.612',4.825,0.720
'0:02.614',4.825,0.700
'0:02.616',4.840,0.735
'0:02.618',4.850,0.720
'0:02.620',4.850,0.720
'0:02.622',4.840,0.720
'0:02.624',4.860,0.725
'0:02.626',4.830,0.715
'0:02.628',4.820,0.720
'0:02.630',4.810,0.710
'0:02.632',4.820,0.725
'0:02.634',4.830,0.720
'0:02.636',4.855,0.720
'0:02.638',4.850,0.720
'0:02.640',4.840,0.725
'0:02.642',4.835,0.710
'0:02.644',4.830,0.720
'0:02.646',4.845,0.715
'0:02.648',4.820,0.725
'0:02.650',4.825,0.735
'0:02.652',4.840,0.710
'0:02.654',4.835,0.725
'0:02.656',4.835,0.715
'0:02.658',4.830,0.720
'0:02.660',4.845,0.700
'0:02.662',4.850,0.715
'0:02.664',4.835,0.715
'0:02.666',4.840,0.735
'0:02.668',4.825,0.730
'0:02.670',4.835,0.710
'0:02.672',4.830,0.725
'0:02.674',4.820,0.710
'0:02.676',4.840,0.715
'0:02.678',4.840,0.710
'0:02.680',4.830,0.715
'0:02.682',4.835,0.720
'0:02.684',4.850,0.720
'0:02.686',4.835,0.715
'0:02.688',4.820,0.725
'0:02.690',4.830,0.725
'0:02.692',4.840,0.720
'0:02.694',4.825,0.715
'0:02.696',4.820,0.720
'0:02.698',4.855,0.715
'0:02.700',4.855,0.720
'0:02.702',4.835,0.715
'0:02.704',4.830,0.730
'0:02.706',4.825,0.720
'0:02.708',4.815,0.720
'0:02.710',4.835,0.715
'0:02.712',4.835,0.720
'0:02.714',4.830,0.710
'0:02.716',4.845,0.725
'0:02.718',4.870,0.725
'0:02.720',4.835,0.725
'0:02.722',4.815,0.725
'0:02.724',4.825,0.705
'0:02.726',4.830,0.725
'0:02.728',4.825,0.720
'0:02.730',4.815,0.720
'0:02.732',4.855,0.715
'0:02.734',4.850,0.730
'0:02.736',4.845,0.725
'0:02.738',4.835,0.720
'0:02.740',4.845,0.705
'0:02.742',4.820,0.715
'0:02.744',4.810,0.720
'0:02.746',4.835,0.725
'0:02.748',4.830,0.730
'0:02.750',4.850,0.720
'0:02.752',4.840,0.725
'0:02.754',4.840,0.715
'0:02.756',4.855,0.725
'0:02.758',4.830,0.705
'0:02.760',4.815,0.720
'0:02.762',4.805,0.715
'0:02.764',4.830,0.725
'0:02.766',4.835,0.730
'0:02.768',4.830,0.720
'0:02.770',4.865,0.730
'0:02.772',4.855,0.720
'0:02.774',4.830,0.720
'0:02.776',4.830,0.720
'0:02.778',4.835,0.725
'0:02.780',4.815,0.710
'0:02.782',4.820,0.725
'0:02.784',4.850,0.720
'0:02.786',4.850,0.725
'0:02.788',4.850,0.735
'0:02.790',4.845,0.720
'0:02.792',4.825,0.720
'0:02.794',4.840,0.715
'0:02.796',4.815,0.720
'0:02.798',4.805,0.725
'0:02.800',4.850,0.715
'0:02.802',4.840,0.720
'0:02.804',4.845,0.720
'0:02.806',4.845,0.730
'0:02.808',4.850,0.710
'0:02.810',4.835,0.715
'0:02.812',4.820,0.715
'0:02.814',4.830,0.725
'0:02.816',4.830,0.705
'0:02.818',4.835,0.730
'0:02.820',4.840,0.720
'0:02.822',4.865,0.730
'0:02.824',4.840,0.700
'0:02.826',4.830,0.720
'0:02.828',4.820,0.715
'0:02.830',4.835,0.725
'0:02.832',4.820,0.705
'0:02.834',4.830,0.725
'0:02.836',4.850,0.725
'0:02.838',4.850,0.720
'0:02.840',4.840,0.725
'0:02.842',4.820,0.715
'0:02.844',4.855,0.725
'0:02.846',4.835,0.710
'0:02.848',4.815,0.720
'0:02.850',4.830,0.725
'0:02.852',4.825,0.725
'0:02.854',4.840,0.735
'0:02.856',4.825,0.715
'0:02.858',4.825,0.710
'0:02.860',4.855,0.715
'0:02.862',4.850,0.720
'0:02.864',4.840,0.725
'0:02.866',4.840,0.715
'0:02.868',4.830,0.720
'0:02.870',4.830,0.725
'0:02.872',4.825,0.725
'0:02.874',4.820,0.725
'0:02.876',4.840,0.705
'0:02.878',4.830,0.720
'0:02.880',4.840,0.715
'0:02.882',4.840,0.725
'0:02.884',4.845,0.720
'0:02.886',4.860,0.720
'0:02.888',4.840,0.725
'0:02.890',4.820,0.720
'0:02.892',4.820,0.720
'0:02.894',4.820,0.715
'0:02.896',4.835,0.710
'0:02.898',4.825,0.720
'0:02.900',4.860,0.730
'0:02.902',4.855,0.730
'0:02.904',4.850,0.720
'0:02.906',4.840,0.725
'0:02.908',4.820,0.715
'0:02.910',4.825,0.730
'0:02.912',4.815,0.715
'0:02.914',4.830,0.720
'0:02.916',4.840,0.725
'0:02.918',4.845,0.730
'0:02.920',4.840,0.725
'0:02.922',4.860,0.725
'0:02.924',4.845,0.715
'0:02.926',4.820,0.720
'0:02.928',4.815,0.715
'0:02.930',4.825,0.720
'0:02.932',4.825,0.715
'0:02.934',4.835,0.730
'0:02.936',4.850,0.730
'0:02.938',4.855,0.725
'0:02.940',4.840,0.710
'0:02.942',4.830,0.725
'0:02.944',4.840,0.715
'0:02.946',4.815,0.720
'0:02.948',4.815,0.710
'0:02.950',4.840,0.725
'0:02.952',4.845,0.730
'0:02.954',4.840,0.730
'0:02.956',4.835,0.725
'0:02.958',4.850,0.710
'0:02.960',4.830,0.715
'0:02.962',4.820,0.720
'0:02.964',4.825,0.725
'0:02.966',4.840,0.715
'0:02.968',4.845,0.730
'0:02.970',4.845,0.720
'0:02.972',4.860,0.730
'0:02.974',4.845,0.715
'0:02.976',4.830,0.720
'0:02.978',4.805,0.720
'0:02.980',4.830,0.710
'0:02.982',4.830,0.725
'0:02.984',4.840,0.720
'0:02.986',4.870,0.730
'0:02.988',4.855,0.715
'0:02.990',4.840,0.720
'0:02.992',4.820,0.720
'0:02.994',4.810,0.725
'0:02.996',4.825,0.720
'0:02.998',4.815,0.710
'0:03.000',4.840,0.725
'0:03.002',4.855,0.730
'0:03.004',4.855,0.725
'0:03.006',4.840,0.725
'0:03.008',4.825,0.710
'0:03.010',4.815,0.720
'0:03.012',4.830,0.715
'0:03.014',4.820,0.720
'0:03.016',4.830,0.735
'0:03.018',4.850,0.715
'0:03.020',4.850,0.725
'0:03.022',4.850,0.725
'0:03.024',4.840,0.720
'0:03.026',4.840,0.705
'0:03.028',4.830,0.715
'0:03.030',4.825,0.725
'0:03.032',4.815,0.725
'0:03.034',4.845,0.735
'0:03.036',4.845,0.715
'0:03.038',4.845,0.725
'0:03.040',4.850,0.715
'0:03.042',4.830,0.720
'0:03.044',4.850,0.715
'0:03.046',4.830,0.715
'0:03.048',4.820,0.725
'0:03.050',4.835,0.720
'0:03.052',4.825,0.720
'0:03.054',4.830,0.730
'0:03.056',4.820,0.725
'0:03.058',4.850,0.725
'0:03.060',4.840,0.710
'0:03.062',4.840,0.720
'0:03.064',4.835,0.720
'0:03.066',4.835,0.730
'0:03.068',4.865,0.730
'0:03.070',4.825,0.710
'0:03.072',4.815,0.720
'0:03.074',4.830,0.715
'0:03.076',4.840,0.720
'0:03.078',4.835,0.715
'0:03.080',4.830,0.720
'0:03.082',4.860,0.725
'0:03.084',4.865,0.730
'0:03.086',4.855,0.735
'0:03.088',4.840,0.715
'0:03.090',4.830,0.725
'0:03.092',4.835,0.720
'0:03.094',4.815,0.720
'0:03.096',4.810,0.720
'0:03.098',4.845,0.710
'0:03.100',4.850,0.730
'0:03.102',4.850,0.720
'0:03.104',4.845,0.730
'0:03.106',4.845,0.720
'0:03.108',4.840,0.715
'0:03.110',4.825,0.720
'0:03.112',4.815,0.720
'0:03.114',4.825,0.730
'0:03.116',4.840,0.720
'0:03.118',4.840,0.730
'0:03.120',4.840,0.730
'0:03.122',4.865,0.725
'0:03.124',4.850,0.710
'0:03.126',4.830,0.715
'0:03.128',4.820,0.715
'0:03.130',4.825,0.720
'0:03.132',4.820,0.725
'0:03.134',4.835,0.725
'0:03.136',4.860,0.730
'0:03.138',4.850,0.720
'0:03.140',4.850,0.730
'0:03.142',4.835,0.720
'0:03.144',4.850,0.720
'0:03.146',4.825,0.715
'0:03.148',4.805,0.725
'0:03.150',4.845,0.720
'0:03.152',4.840,0.725
'0:03.154',4.840,0.720
'0:03.156',4.840,0.720
'0:03.158',4.845,0.720
'0:03.160',4.845,0.720
'0:03.162',4.830,0.725
'0:03.164',4.830,0.715
'0:03.166',4.825,0.725
'0:03.168',4.840,0.720
'0:03.170',4.835,0.725
'0:03.172',4.840,0.730
'0:03.174',4.855,0.715
'0:03.176',4.835,0.720
'0:03.178',4.810,0.720
'0:03.180',4.820,0.725
'0:03.182',4.835,0.710
'0:03.184',4.840,0.720
'0:03.186',4.840,0.725
'0:03.188',4.865,0.730
'0:03.190',4.855,0.725
'0:03.192',4.830,0.710
'0:03.194',4.815,0.715
'0:03.196',4.820,0.725
'0:03.198',4.820,0.715
'0:03.200',4.835,0.730
'0:03.202',4.835,0.725
'0:03.204',4.835,0.725
'0:03.206',4.870,0.735
'0:03.208',4.840,0.720
'0:03.210',4.830,0.715
'0:03.212',4.820,0.715
'0:03.214',4.805,0.720
'0:03.216',4.835,0.730
'0:03.218',4.830,0.710
'0:03.220',4.830,0.725
'0:03.222',4.855,0.720
'0:03.224',4.845,0.720
'0:03.226',4.840,0.725
'0:03.228',4.835,0.715
'0:03.230',4.835,0.715
'0:03.232',4.830,0.725
'0:03.234',4.830,0.730
'0:03.236',4.830,0.720
'0:03.238',4.840,0.725
'0:03.240',4.840,0.720
'0:03.242',4.835,0.725
'0:03.244',4.830,0.715
'0:03.246',4.855,0.710
'0:03.248',4.840,0.725
'0:03.250',4.845,0.720
'0:03.252',4.835,0.725
'0:03.254',4.830,0.720
'0:03.256',4.835,0.725
'0:03.258',4.830,0.725
'0:03.260',4.835,0.720
'0:03.262',4.840,0.720
'0:03.264',4.845,0.710
'0:03.266',4.845,0.730
'0:03.268',4.845,0.725
'0:03.270',4.850,0.715
'0:03.272',4.845,0.725
'0:03.274',4.820,0.710
'0:03.276',4.810,0.725
'0:03.278',4.830,0.710
'0:03.280',4.835,0.720
'0:03.282',4.830,0.720
'0:03.284',4.840,0.725
'0:03.286',4.865,0.730
'0:03.288',4.855,0.715
'0:03.290',4.835,0.720
'0:03.292',4.830,0.715
'0:03.294',4.815,0.720
'0:03.296',4.815,0.720
'0:03.298',4.820,0.715
'0:03.300',4.845,0.720
'0:03.302',4.850,0.720
'0:03.304',4.845,0.730
'0:03.306',4.840,0.710
'0:03.308',4.835,0.715
'0:03.310',4.840,0.715
'0:03.312',4.835,0.720
'0:03.314',4.815,0.720
'0:03.316',4.830,0.710
'0:03.318',4.840,0.715
'0:03.320',4.845,0.730
'0:03.322',4.835,0.725
'0:03.324',4.830,0.715
'0:03.326',4.850,0.715
'0:03.328',4.820,0.725
'0:03.330',4.805,0.715
'0:03.332',4.835,0.730
'0:03.334',4.850,0.720
'0:03.336',4.845,0.725
'0:03.338',4.855,0.725
'0:03.340',4.855,0.710
'0:03.342',4.835,0.720
'0:03.344',4.810,0.710
'0:03.346',4.825,0.720
'0:03.348',4.830,0.715
'0:03.350',4.845,0.720
'0:03.352',4.840,0.715
'0:03.354',4.840,0.720
'0:03.356',4.850,0.720
'0:03.358',4.820,0.720
'0:03.360',4.825,0.720
'0:03.362',4.830,0.720
'0:03.364',4.835,0.725
'0:03.366',4.835,0.725
'0:03.368',4.855,0.720
'0:03.370',4.850,0.715
'0:03.372',4.825,0.735
'0:03.374',4.815,0.700
'0:03.376',4.820,0.725
'0:03.378',4.830,0.715
'0:03.380',4.830,0.725
'0:03.382',4.835,0.725
'0:03.384',4.870,0.720
'0:03.386',4.850,0.725
'0:03.388',4.825,0.725
'0:03.390',4.820,0.725
'0:03.392',4.835,0.720
'0:03.394',4.820,0.715
'0:03.396',4.820,0.725
'0:03.398',4.850,0.730
'0:03.400',4.865,0.715
'0:03.402',4.845,0.720
'0:03.404',4.840,0.725
'0:03.406',4.835,0.715
'0:03.408',4.820,0.720
'0:03.410',4.815,0.705
'0:03.412',4.820,0.725
'0:03.414',4.830,0.710
'0:03.416',4.845,0.730
'0:03.418',4.835,0.720
'0:03.420',4.865,0.730
'0:03.422',4.855,0.725
'0:03.424',4.830,0.715
'0:03.426',4.825,0.710
'0:03.428',4.815,0.710
'0:03.430',4.825,0.725
'0:03.432',4.825,0.710
'0:03.434',4.830,0.720
'0:03.436',4.860,0.715
'0:03.438',4.860,0.715
'0:03.440',4.855,0.725
'0:03.442',4.840,0.710
'0:03.444',4.830,0.705
'0:03.446',4.845,0.715
'0:03.448',4.825,0.715
'0:03.450',4.820,0.730
'0:03.452',4.835,0.715
'0:03.454',4.845,0.725
'0:03.456',4.845,0.720
'0:03.458',4.830,0.720
'0:03.460',4.835,0.725
'0:03.462',4.850,0.710
'0:03.464',4.845,0.715
'0:03.466',4.830,0.725
'0:03.468',4.820,0.730
'0:03.470',4.825,0.730
'0:03.472',4.845,0.715
'0:03.474',4.825,0.720
'0:03.476',4.825,0.710
'0:03.478',4.840,0.725
'0:03.480',4.845,0.710
'0:03.482',4.845,0.725
'0:03.484',4.835,0.725
'0:03.486',4.840,0.725
'0:03.488',4.840,0.730
'0:03.490',4.825,0.720
'0:03.492',4.835,0.720
'0:03.494',4.830,0.715
'0:03.496',4.835,0.715
'0:03.498',4.830,0.720
'0:03.500',4.850,0.725
'0:03.502',4.850,0.720
'0:03.504',4.825,0.725
'0:03.506',4.825,0.720
'0:03.508',4.810,0.715
'0:03.510',4.825,0.720
'0:03.512',4.830,0.710
'0:03.514',4.835,0.720
'0:03.516',4.865,0.715
'0:03.518',4.850,0.725
'0:03.520',4.840,0.720
'0:03.522',4.840,0.720
'0:03.524',4.835,0.715
'0:03.526',4.815,0.720
'0:03.528',4.815,0.725
'0:03.530',4.835,0.715
'0:03.532',4.835,0.725
'0:03.534',4.840,0.720
'0:03.536',4.845,0.735
'0:03.538',4.850,0.715
'0:03.540',4.845,0.720
'0:03.542',4.815,0.725
'0:03.544',4.820,0.715
'0:03.546',4.830,0.710
'0:03.548',4.825,0.725
'0:03.550',4.825,0.720
'0:03.552',4.865,0.725
'0:03.554',4.860,0.735
'0:03.556',4.850,0.715
'0:03.558',4.830,0.725
'0:03.560',4.825,0.710
'0:03.562',4.825,0.730
'0:03.564',4.810,0.710
'0:03.566',4.835,0.730
'0:03.568',4.845,0.715
'0:03.570',4.850,0.725
'0:03.572',4.835,0.715
'0:03.574',4.830,0.710
'0:03.576',4.855,0.725
'0:03.578',4.825,0.715
'0:03.580',4.810,0.720
'0:03.582',4.815,0.715
'0:03.584',4.830,0.725
'0:03.586',4.835,0.730
'0:03.588',4.835,0.715
'0:03.590',4.840,0.720
'0:03.592',4.850,0.715
'0:03.594',4.835,0.725
'0:03.596',4.840,0.705
'0:03.598',4.830,0.720
'0:03.600',4.840,0.720
'0:03.602',4.820,0.725
'0:03.604',4.825,0.715
'0:03.606',4.840,0.710
'0:03.608',4.835,0.720
'0:03.610',4.830,0.720
'0:03.612',4.835,0.725
'0:03.614',4.850,0.705
'0:03.616',4.855,0.730
'0:03.618',4.835,0.730
'0:03.620',4.825,0.730
'0:03.622',4.815,0.730
'0:03.624',4.830,0.715
'0:03.626',4.825,0.720
'0:03.628',4.835,0.720
'0:03.630',4.840,0.720
'0:03.632',4.850,0.715
'0:03.634',4.845,0.725
'0:03.636',4.840,0.720
'0:03.638',4.860,0.730
'0:03.640',4.830,0.715
'0:03.642',4.805,0.720
'0:03.644',4.820,0.720
'0:03.646',4.835,0.720
'0:03.648',4.830,0.720
'0:03.650',4.835,0.715
'0:03.652',4.860,0.720
'0:03.654',4.845,0.715
'0:03.656',4.825,0.720
'0:03.658',4.820,0.715
'0:03.660',4.815,0.725
'0:03.662',4.825,0.720
'0:03.664',4.825,0.715
'0:03.666',4.840,0.720
'0:03.668',4.845,0.725
'0:03.670',4.855,0.730
'0:03.672',4.835,0.710
'0:03.674',4.815,0.715
'0:03.676',4.830,0.720
'0:03.678',4.815,0.715
'0:03.680',4.825,0.725
'0:03.682',4.840,0.715
'0:03.684',4.865,0.720
'0:03.686',4.860,0.725
'0:03.688',4.835,0.720
'0:03.690',4.830,0.710
'0:03.692',4.815,0.715
'0:03.694',4.825,0.720
'0:03.696',4.840,0.715
'0:03.698',4.845,0.720
'0:03.700',4.855,0.710
'0:03.702',4.835,0.720
'0:03.704',4.820,0.730
'0:03.706',4.835,0.725
'0:03.708',4.820,0.725
'0:03.710',4.820,0.715
'0:03.712',4.855,0.720
'0:03.714',4.845,0.715
'0:03.716',4.840,0.720
'0:03.718',4.830,0.720
'0:03.720',4.820,0.720
'0:03.722',4.835,0.725
'0:03.724',4.825,0.705
'0:03.726',4.835,0.720
'0:03.728',4.850,0.710
'0:03.730',4.840,0.720
'0:03.732',4.835,0.720
'0:03.734',4.835,0.715
'0:03.736',4.835,0.720
'0:03.738',4.840,0.725
'0:03.740',4.830,0.720
'0:03.742',4.825,0.720
'0:03.744',4.850,0.700
'0:03.746',4.840,0.720
'0:03.748',4.840,0.725
'0:03.750',4.850,0.725
'0:03.752',4.835,0.720
'0:03.754',4.825,0.720
'0:03.756',4.835,0.710
'0:03.758',4.820,0.715
'0:03.760',4.820,0.710
'0:03.762',4.825,0.715
'0:03.764',4.860,0.725
'0:03.766',4.855,0.725
'0:03.768',4.845,0.720
'0:03.770',4.840,0.725
'0:03.772',4.825,0.715
'0:03.774',4.840,0.715
'0:03.776',4.815,0.715
'0:03.778',4.810,0.720
'0:03.780',4.830,0.720
'0:03.782',4.840,0.710
'0:03.784',4.840,0.720
'0:03.786',4.845,0.720
'0:03.788',4.860,0.720
'0:03.790',4.855,0.710
'0:03.792',4.820,0.715
'0:03.794',4.825,0.715
'0:03.796',4.810,0.720
'0:03.798',4.830,0.720
'0:03.800',4.830,0.710
'0:03.802',4.825,0.720
'0:03.804',4.860,0.720
'0:03.806',4.850,0.720
'0:03.808',4.835,0.715
'0:03.810',4.835,0.705
'0:03.812',4.830,0.710
'0:03.814',4.840,0.715
'0:03.816',4.820,0.730
'0:03.818',4.825,0.725
'0:03.820',4.850,0.715
'0:03.822',4.845,0.725
'0:03.824',4.835,0.715
'0:03.826',4.840,0.725
'0:03.828',4.835,0.710
'0:03.830',4.840,0.715
'0:03.832',4.820,0.725
'0:03.834',4.825,0.725
'0:03.836',4.850,0.730
'0:03.838',4.850,0.715
'0:03.840',4.845,0.715
'0:03.842',4.830,0.725
'0:03.844',4.840,0.720
'0:03.846',4.835,0.720
'0:03.848',4.820,0.705
'0:03.850',4.820,0.720
'0:03.852',4.845,0.725
'0:03.854',4.845,0.720
'0:03.856',4.845,0.745
'0:03.858',4.835,0.715
'0:03.860',4.825,0.720
'0:03.862',4.830,0.725
'0:03.864',4.820,0.710
'0:03.866',4.820,0.730
'0:03.868',4.850,0.725
'0:03.870',4.855,0.725
'0:03.872',4.845,0.725
'0:03.874',4.825,0.710
'0:03.876',4.830,0.720
'0:03.878',4.815,0.720
'0:03.880',4.820,0.725
'0:03.882',4.840,0.715
'0:03.884',4.855,0.725
'0:03.886',4.865,0.725
'0:03.888',4.840,0.730
'0:03.890',4.830,0.725
'0:03.892',4.825,0.710
'0:03.894',4.815,0.720
'0:03.896',4.815,0.720
'0:03.898',4.845,0.720
'0:03.900',4.845,0.710
'0:03.902',4.850,0.720
'0:03.904',4.835,0.725
'0:03.906',4.845,0.725
'0:03.908',4.810,0.715
'0:03.910',4.810,0.715
'0:03.912',4.830,0.720
'0:03.914',4.835,0.710
'0:03.916',4.835,0.730
'0:03.918',4.840,0.720
'0:03.920',4.865,0.725
'0:03.922',4.855,0.720
'0:03.924',4.830,0.720
'0:03.926',4.830,0.715
'0:03.928',4.810,0.715
'0:03.930',4.830,0.715
'0:03.932',4.815,0.715
'0:03.934',4.840,0.715
'0:03.936',4.850,0.730
'0:03.938',4.845,0.725
'0:03.940',4.840,0.715
'0:03.942',4.825,0.720
'0:03.944',4.845,0.725
'0:03.946',4.830,0.720
'0:03.948',4.815,0.720
'0:03.950',4.840,0.720
'0:03.952',4.835,0.735
'0:03.954',4.840,0.725
'0:03.956',4.830,0.730
'0:03.958',4.845,0.700
'0:03.960',4.845,0.715
'0:03.962',4.835,0.720
'0:03.964',4.830,0.715
'0:03.966',4.840,0.735
'0:03.968',4.840,0.720
'0:03.970',4.820,0.725
'0:03.972',4.815,0.725
'0:03.974',4.840,0.720
'0:03.976',4.835,0.725
'0:03.978',4.830,0.715
'0:03.980',4.835,0.725
'0:03.982',4.835,0.725
'0:03.984',4.860,0.730
'0:03.986',4.845,0.715
'0:03.988',4.815,0.720
'0:03.990',4.820,0.720
'0:03.992',4.830,0.725
'0:03.994',4.820,0.715
'0:03.996',4.820,0.710
'0:03.998',4.850,0.720
'0:04.000',4.850,0.720
'0:04.002',4.850,0.730
'0:04.004',4.835,0.720
'0:04.006',4.845,0.730
'0:04.008',4.815,0.710
'0:04.010',4.805,0.725
'0:04.012',4.830,0.710
'0:04.014',4.825,0.720
'0:04.016',4.840,0.730
'0:04.018',4.845,0.720
'0:04.020',4.850,0.720
'0:04.022',4.855,0.725
'0:04.024',4.825,0.715
'0:04.026',4.820,0.710
'0:04.028',4.805,0.715
'0:04.030',4.820,0.720
'0:04.032',4.825,0.735
'0:04.034',4.855,0.710
'0:04.036',4.850,0.725
'0:04.038',4.840,0.720
'0:04.040',4.840,0.725
'0:04.042',4.835,0.710
'0:04.044',4.810,0.720
'0:04.046',4.820,0.715
'0:04.048',4.830,0.715
'0:04.050',4.865,0.730
'0:04.052',4.855,0.710
'0:04.054',4.850,0.720
'0:04.056',4.830,0.725
'0:04.058',4.830,0.720
'0:04.060',4.820,0.720
'0:04.062',4.820,0.710
'0:04.064',4.855,0.720
'0:04.066',4.845,0.720
'0:04.068',4.845,0.725
'0:04.070',4.845,0.715
'0:04.072',4.825,0.725
'0:04.074',4.825,0.715
'0:04.076',4.820,0.725
'0:04.078',4.840,0.715
'0:04.080',4.840,0.725
'0:04.082',4.840,0.720
'0:04.084',4.845,0.725
'0:04.086',4.850,0.725
'0:04.088',4.825,0.725
'0:04.090',4.815,0.730
'0:04.092',4.845,0.710
'0:04.094',4.835,0.720
'0:04.096',4.835,0.720
'0:04.098',4.835,0.725
'0:04.100',4.855,0.720
'0:04.102',4.850,0.720
'0:04.104',4.830,0.730
'0:04.106',4.820,0.725
'0:04.108',4.830,0.720
'0:04.110',4.835,0.700
'0:04.112',4.830,0.715
'0:04.114',4.835,0.715
'0:04.116',4.870,0.725
'0:04.118',4.850,0.715
'0:04.120',4.840,0.725
'0:04.122',4.835,0.720
'0:04.124',4.845,0.720
'0:04.126',4.815,0.720
'0:04.128',4.805,0.715
'0:04.130',4.835,0.725
'0:04.132',4.840,0.715
'0:04.134',4.850,0.720
'0:04.136',4.840,0.720
'0:04.138',4.845,0.725
'0:04.140',4.870,0.720
'0:04.142',4.835,0.710
'0:04.144',4.820,0.715
'0:04.146',4.815,0.720
'0:04.148',4.830,0.720
'0:04.150',4.830,0.710
'0:04.152',4.835,0.725
'0:04.154',4.855,0.715
'0:04.156',4.850,0.730
'0:04.158',4.840,0.715
'0:04.160',4.830,0.710
'0:04.162',4.840,0.720
'0:04.164',4.845,0.710
'0:04.166',4.825,0.730
'0:04.168',4.820,0.715
'0:04.170',4.840,0.720
'0:04.172',4.840,0.725
'0:04.174',4.835,0.715
'0:04.176',4.835,0.725
'0:04.178',4.835,0.710
'0:04.180',4.845,0.715
'0:04.182',4.835,0.720
'0:04.184',4.830,0.725
'0:04.186',4.835,0.725
'0:04.188',4.835,0.715
'0:04.190',4.830,0.715
'0:04.192',4.825,0.720
'0:04.194',4.835,0.715
'0:04.196',4.845,0.730
'0:04.198',4.850,0.715
'0:04.200',4.840,0.720
'0:04.202',4.840,0.730
'0:04.204',4.850,0.730
'0:04.206',4.825,0.710
'0:04.208',4.810,0.715
'0:04.210',4.825,0.725
'0:04.212',4.830,0.710
'0:04.214',4.835,0.720
'0:04.216',4.840,0.715
'0:04.218',4.860,0.725
'0:04.220',4.845,0.710
'0:04.222',4.835,0.720
'0:04.224',4.820,0.710
'0:04.226',4.810,0.720
'0:04.228',4.825,0.720
'0:04.230',4.820,0.710
'0:04.232',4.825,0.720
'0:04.234',4.865,0.720
'0:04.236',4.855,0.730
'0:04.238',4.855,0.730
'0:04.240',4.840,0.710
'0:04.242',4.810,0.720
'0:04.244',4.830,0.710
'0:04.246',4.820,0.720
'0:04.248',4.815,0.725
'0:04.250',4.850,0.705
'0:04.252',4.865,0.720
'0:04.254',4.850,0.730
'0:04.256',4.840,0.725
'0:04.258',4.820,0.720
'0:04.260',4.835,0.710
'0:04.262',4.820,0.720
'0:04.264',4.820,0.720
'0:04.266',4.855,0.730
'0:04.268',4.855,0.725
'0:04.270',4.840,0.725
'0:04.272',4.835,0.730
'0:04.274',4.820,0.715
'0:04.276',4.820,0.715
'0:04.278',4.815,0.720
'0:04.280',4.840,0.720
'0:04.282',4.845,0.725
'0:04.284',4.845,0.725
'0:04.286',4.840,0.720
'0:04.288',4.835,0.725
'0:04.290',4.835,0.720
'0:04.292',4.815,0.705
'0:04.294',4.820,0.725
'0:04.296',4.835,0.710
'0:04.298',4.835,0.725
'0:04.300',4.845,0.725
'0:04.302',4.840,0.725
'0:04.304',4.865,0.725
'0:04.306',4.835,0.725
'0:04.308',4.815,0.730
'0:04.310',4.820,0.710
'0:04.312',4.820,0.715
'0:04.314',4.835,0.720
'0:04.316',4.840,0.725
'0:04.318',4.855,0.715
'0:04.320',4.855,0.720
'0:04.322',4.840,0.720
'0:04.324',4.835,0.720
'0:04.326',4.830,0.720
'0:04.328',4.825,0.715
'0:04.330',4.815,0.720
'0:04.332',4.830,0.725
'0:04.334',4.850,0.730
'0:04.336',4.855,0.715
'0:04.338',4.840,0.720
'0:04.340',4.840,0.720
'0:04.342',4.830,0.725
'0:04.344',4.850,0.715
'0:04.346',4.820,0.715
'0:04.348',4.815,0.715
'0:04.350',4.830,0.730
'0:04.352',4.835,0.725
'0:04.354',4.830,0.730
'0:04.356',4.830,0.720
'0:04.358',4.850,0.730
'0:04.360',4.840,0.715
'0:04.362',4.835,0.720
'0:04.364',4.840,0.710
'0:04.366',4.830,0.730
'0:04.368',4.835,0.720
'0:04.370',4.820,0.720
'0:04.372',4.830,0.720
'0:04.374',4.830,0.720
'0:04.376',4.840,0.725
'0:04.378',4.830,0.705
'0:04.380',4.835,0.715
'0:04.382',4.855,0.720
'0:04.384',4.840,0.735
'0:04.386',4.840,0.715
'0:04.388',4.820,0.720
'0:04.390',4.835,0.725
'0:04.392',4.815,0.720
'0:04.394',4.820,0.720
'0:04.396',4.840,0.715
'0:04.398',4.840,0.715
'0:04.400',4.850,0.725
'0:04.402',4.830,0.720
'0:04.404',4.845,0.720
'0:04.406',4.820,0.720
'0:04.408',4.825,0.720
'0:04.410',4.830,0.710
'0:04.412',4.825,0.710
'0:04.414',4.825,0.720
'0:04.416',4.855,0.730
'0:04.418',4.850,0.715
'0:04.420',4.850,0.725
'0:04.422',4.835,0.720
'0:04.424',4.830,0.710
'0:04.426',4.820,0.725
'0:04.428',4.815,0.710
'0:04.430',4.840,0.715
'0:04.432',4.835,0.720
'0:04.434',4.845,0.725
'0:04.436',4.855,0.725
'0:04.438',4.855,0.730
'0:04.440',4.840,0.720
'0:04.442',4.805,0.720
'0:04.444',4.825,0.705
'0:04.446',4.815,0.720
'0:04.448',4.830,0.715
'0:04.450',4.845,0.725
'0:04.452',4.855,0.720
'0:04.454',4.850,0.730
'0:04.456',4.835,0.715
'0:04.458',4.820,0.720
'0:04.460',4.835,0.710
'0:04.462',4.815,0.720
'0:04.464',4.815,0.715
'0:04.466',4.845,0.720
'0:04.468',4.850,0.715
'0:04.470',4.845,0.730
'0:04.472',4.840,0.730
'0:04.474',4.855,0.710
'0:04.476',4.840,0.720
'0:04.478',4.810,0.720
'0:04.480',4.825,0.730
'0:04.482',4.835,0.720
'0:04.484',4.840,0.720
'0:04.486',4.835,0.730
'0:04.488',4.855,0.725
'0:04.490',4.855,0.720
'0:04.492',4.835,0.705
'0:04.494',4.830,0.720
'0:04.496',4.815,0.720
'0:04.498',4.835,0.720
'0:04.500',4.830,0.715
'0:04.502',4.825,0.715
'0:04.504',4.845,0.725
'0:04.506',4.850,0.715
'0:04.508',4.835,0.715
'0:04.510',4.840,0.710
'0:04.512',4.830,0.715
'0:04.514',4.850,0.720
'0:04.516',4.840,0.720
'0:04.518',4.820,0.720
'0:04.520',4.830,0.725
'0:04.522',4.850,0.725
'0:04.524',4.840,0.710
'0:04.526',4.835,0.725
'0:04.528',4.825,0.715
'0:04.530',4.845,0.720
'0:04.532',4.830,0.720
'0:04.534',4.820,0.730
'0:04.536',4.830,0.720
'0:04.538',4.845,0.720
'0:04.540',4.845,0.715
'0:04.542',4.835,0.720
'0:04.544',4.835,0.720
'0:04.546',4.850,0.705
'0:04.548',4.830,0.710
'0:04.550',4.825,0.720
'0:04.552',4.845,0.730
'0:04.554',4.845,0.720
'0:04.556',4.835,0.710
'0:04.558',4.830,0.720
'0:04.560',4.830,0.710
'0:04.562',4.845,0.720
'0:04.564',4.815,0.710
'0:04.566',4.825,0.720
'0:04.568',4.835,0.725
'0:04.570',4.845,0.720
'0:04.572',4.850,0.725
'0:04.574',4.840,0.715
'0:04.576',4.840,0.720
'0:04.578',4.815,0.710
'0:04.580',4.810,0.710
'0:04.582',4.835,0.720
'0:04.584',4.850,0.725
'0:04.586',4.845,0.720
'0:04.588',4.850,0.715
'0:04.590',4.830,0.725
'0:04.592',4.835,0.710
'0:04.594',4.815,0.725
'0:04.596',4.810,0.715
'0:04.598',4.840,0.705
'0:04.600',4.850,0.720
'0:04.602',4.855,0.715
'0:04.604',4.850,0.720
'0:04.606',4.840,0.725
'0:04.608',4.830,0.710
'0:04.610',4.820,0.725
'0:04.612',4.810,0.720
'0:04.614',4.835,0.720
'0:04.616',4.845,0.720
'0:04.618',4.840,0.725
'0:04.620',4.845,0.725
'0:04.622',4.860,0.720
'0:04.624',4.845,0.715
'0:04.626',4.835,0.720
'0:04.628',4.815,0.720
'0:04.630',4.810,0.725
'0:04.632',4.825,0.720
'0:04.634',4.840,0.725
'0:04.636',4.840,0.720
'0:04.638',4.835,0.725
'0:04.640',4.855,0.725
'0:04.642',4.845,0.710
'0:04.644',4.835,0.720
'0:04.646',4.825,0.715
'0:04.648',4.815,0.715
'0:04.650',4.830,0.725
'0:04.652',4.820,0.715
'0:04.654',4.830,0.725
'0:04.656',4.845,0.715
'0:04.658',4.835,0.715
'0:04.660',4.840,0.720
'0:04.662',4.840,0.710
'0:04.664',4.835,0.720
'0:04.666',4.855,0.725
'0:04.668',4.835,0.730
'0:04.670',4.825,0.715
'0:04.672',4.830,0.715
'0:04.674',4.835,0.710
'0:04.676',4.825,0.715
'0:04.678',4.815,0.725
'0:04.680',4.850,0.705
'0:04.682',4.845,0.725
'0:04.684',4.845,0.725
'0:04.686',4.845,0.730
'0:04.688',4.835,0.705
'0:04.690',4.835,0.715
'0:04.692',4.810,0.715
'0:04.694',4.830,0.715
'0:04.696',4.825,0.705
'0:04.698',4.830,0.720
'0:04.700',4.845,0.730
'0:04.702',4.860,0.730
'0:04.704',4.850,0.725
'0:04.706',4.835,0.710
'0:04.708',4.825,0.720
'0:04.710',4.815,0.715
'0:04.712',4.820,0.715
'0:04.714',4.825,0.720
'0:04.716',4.830,0.730
'0:04.718',4.855,0.720
'0:04.720',4.850,0.715
'0:04.722',4.845,0.725
'0:04.724',4.830,0.715
'0:04.726',4.830,0.720
'0:04.728',4.810,0.705
'0:04.730',4.810,0.720
'0:04.732',4.840,0.720
'0:04.734',4.845,0.715
'0:04.736',4.845,0.730
'0:04.738',4.840,0.715
'0:04.740',4.850,0.720
'0:04.742',4.820,0.720
'0:04.744',4.810,0.715
'0:04.746',4.815,0.710
'0:04.748',4.835,0.720
'0:04.750',4.845,0.715
'0:04.752',4.835,0.725
'0:04.754',4.840,0.715
'0:04.756',4.850,0.725
'0:04.758',4.815,0.720
'0:04.760',4.810,0.715
'0:04.762',4.830,0.720
'0:04.764',4.840,0.710
'0:04.766',4.845,0.720
'0:04.768',4.840,0.720
'0:04.770',4.860,0.725
'0:04.772',4.825,0.715
'0:04.774',4.805,0.715
'0:04.776',4.815,0.720
'0:04.778',4.830,0.710
'0:04.780',4.825,0.715
'0:04.782',4.835,0.720
'0:04.784',4.855,0.725
'0:04.786',4.865,0.720
'0:04.788',4.840,0.715
'0:04.790',4.835,0.720
'0:04.792',4.805,0.720
'0:04.794',4.825,0.715
'0:04.796',4.825,0.715
'0:04.798',4.815,0.715
'0:04.800',4.845,0.720
'0:04.802',4.855,0.715
'0:04.804',4.850,0.720
'0:04.806',4.840,0.730
'0:04.808',4.830,0.700
'0:04.810',4.825,0.715
'0:04.812',4.830,0.720
'0:04.814',4.820,0.715
'0:04.816',4.830,0.735
'0:04.818',4.830,0.715
'0:04.820',4.855,0.715
'0:04.822',4.850,0.720
'0:04.824',4.840,0.715
'0:04.826',4.840,0.715
'0:04.828',4.820,0.715
'0:04.830',4.845,0.710
'0:04.832',4.820,0.730
'0:04.834',4.820,0.725
'0:04.836',4.835,0.735
'0:04.838',4.845,0.730
'0:04.840',4.845,0.710
'0:04.842',4.830,0.710
'0:04.844',4.825,0.720
'0:04.846',4.840,0.715
'0:04.848',4.840,0.730
'0:04.850',4.840,0.715
'0:04.852',4.815,0.720
'0:04.854',4.835,0.720
'0:04.856',4.830,0.720
'0:04.858',4.840,0.725
'0:04.860',4.830,0.715
'0:04.862',4.835,0.715
'0:04.864',4.855,0.725
'0:04.866',4.845,0.715
'0:04.868',4.840,0.715
'0:04.870',4.825,0.715
'0:04.872',4.830,0.725
'0:04.874',4.820,0.705
'0:04.876',4.825,0.720
'0:04.878',4.845,0.705
'0:04.880',4.840,0.720
'0:04.882',4.840,0.730
'0:04.884',4.845,0.710
'0:04.886',4.835,0.725
'0:04.888',4.840,0.715
'0:04.890',4.820,0.710
'0:04.892',4.815,0.725
'0:04.894',4.835,0.705
'0:04.896',4.835,0.710
'0:04.898',4.840,0.715
'0:04.900',4.835,0.720
'0:04.902',4.845,0.725
'0:04.904',4.860,0.720
'0:04.906',4.830,0.720
'0:04.908',4.810,0.715
'0:04.910',4.825,0.720
'0:04.912',4.825,0.705
'0:04.914',4.835,0.715
'0:04.916',4.840,0.720
'0:04.918',4.855,0.725
'0:04.920',4.860,0.735
'0:04.922',4.835,0.715
'0:04.924',4.820,0.715
'0:04.926',4.810,0.715
'0:04.928',4.830,0.720
'0:04.930',4.820,0.705
'0:04.932',4.840,0.730
'0:04.934',4.850,0.720
'0:04.936',4.845,0.720
'0:04.938',4.830,0.720
'0:04.940',4.815,0.710
'0:04.942',4.830,0.725
'0:04.944',4.820,0.710
'0:04.946',4.820,0.720
'0:04.948',4.860,0.715
'0:04.950',4.845,0.725
'0:04.952',4.840,0.715
'0:04.954',4.830,0.720
'0:04.956',4.840,0.715
'0:04.958',4.825,0.720
'0:04.960',4.825,0.725
'0:04.962',4.855,0.715
'0:04.964',4.845,0.715
'0:04.966',4.850,0.720
'0:04.968',4.840,0.720
'0:04.970',4.820,0.720
'0:04.972',4.835,0.710
'0:04.974',4.825,0.715
'0:04.976',4.825,0.715
'0:04.978',4.850,0.715
'0:04.980',4.840,0.715
'0:04.982',4.850,0.715
'0:04.984',4.845,0.725
'0:04.986',4.830,0.725
'0:04.988',4.835,0.730
'0:04.990',4.820,0.710
'0:04.992',4.810,0.715
'0:04.994',4.830,0.725
'0:04.996',4.840,0.715
'0:04.998',4.825,0.715
'0:05.000',4.840,0.725
'0:05.002',4.860,0.725
'0:05.004',4.840,0.715
'0:05.006',4.825,0.720
'0:05.008',4.815,0.715
'0:05.010',4.810,0.720
'0:05.012',4.830,0.725
'0:05.014',4.825,0.710
'0:05.016',4.830,0.720
'0:05.018',4.855,0.720
'0:05.020',4.855,0.735
'0:05.022',4.845,0.715
'0:05.024',4.830,0.715
'0:05.026',4.840,0.715
'0:05.028',4.825,0.720
'0:05.030',4.810,0.725
'0:05.032',4.825,0.725
'0:05.034',4.850,0.715
'0:05.036',4.845,0.725
'0:05.038',4.840,0.725
'0:05.040',4.845,0.720
'0:05.042',4.840,0.725
'0:05.044',4.850,0.705
'0:05.046',4.825,0.715
'0:05.048',4.820,0.725
'0:05.050',4.835,0.725
'0:05.052',4.840,0.710
'0:05.054',4.830,0.720
'0:05.056',4.830,0.725
'0:05.058',4.850,0.720
'0:05.060',4.840,0.715
'0:05.062',4.835,0.715
'0:05.064',4.840,0.725
'0:05.066',4.835,0.720
'0:05.068',4.835,0.725
'0:05.070',4.825,0.715
'0:05.072',4.815,0.715
'0:05.074',4.840,0.715
'0:05.076',4.830,0.710
'0:05.078',4.835,0.715
'0:05.080',4.835,0.720
'0:05.082',4.835,0.730
'0:05.084',4.865,0.725
'0:05.086',4.835,0.725
'0:05.088',4.820,0.720
'0:05.090',4.825,0.725
'0:05.092',4.825,0.715
'0:05.094',4.825,0.720
'0:05.096',4.830,0.705
'0:05.098',4.830,0.725
'0:05.100',4.860,0.715
'0:05.102',4.845,0.720
'0:05.104',4.825,0.730
'0:05.106',4.825,0.715
'0:05.108',4.810,0.715
'0:05.110',4.830,0.715
'0:05.112',4.825,0.720
'0:05.114',4.830,0.725
'0:05.116',4.860,0.720
'0:05.118',4.845,0.725
'0:05.120',4.845,0.720
'0:05.122',4.835,0.735
'0:05.124',4.835,0.705
'0:05.126',4.810,0.720
'0:05.128',4.815,0.720
'0:05.130',4.825,0.725
'0:05.132',4.845,0.720
'0:05.134',4.845,0.720
'0:05.136',4.845,0.725
'0:05.138',4.845,0.720
'0:05.140',4.855,0.720
'0:05.142',4.815,0.715
'0:05.144',4.810,0.720
'0:05.146',4.820,0.720
'0:05.148',4.825,0.715
'0:05.150',4.835,0.720
'0:05.152',4.840,0.720
'0:05.154',4.860,0.725
'0:05.156',4.855,0.710
'0:05.158',4.830,0.715
'0:05.160',4.825,0.715
'0:05.162',4.815,0.715
'0:05.164',4.825,0.710
'0:05.166',4.815,0.725
'0:05.168',4.850,0.715
'0:05.170',4.840,0.720
'0:05.172',4.845,0.725
'0:05.174',4.835,0.700
'0:05.176',4.835,0.715
'0:05.178',4.835,0.715
'0:05.180',4.825,0.725
'0:05.182',4.815,0.700
'0:05.184',4.835,0.715
'0:05.186',4.845,0.725
'0:05.188',4.840,0.725
'0:05.190',4.830,0.720
'0:05.192',4.855,0.710
'0:05.194',4.835,0.720
'0:05.196',4.825,0.715
'0:05.198',4.820,0.725
'0:05.200',4.830,0.725
'0:05.202',4.835,0.725
'0:05.204',4.845,0.715
'0:05.206',4.840,0.720
'0:05.208',4.830,0.710
'0:05.210',4.850,0.720
'0:05.212',4.825,0.710
'0:05.214',4.810,0.715
'0:05.216',4.830,0.725
'0:05.218',4.835,0.720
'0:05.220',4.845,0.720
'0:05.222',4.835,0.720
'0:05.224',4.860,0.715
'0:05.226',4.835,0.710
'0:05.228',4.815,0.715
'0:05.230',4.820,0.715
'0:05.232',4.830,0.720
'0:05.234',4.835,0.725
'0:05.236',4.835,0.720
'0:05.238',4.865,0.720
'0:05.240',4.845,0.720
'0:05.242',4.830,0.725
'0:05.244',4.815,0.700
'0:05.246',4.815,0.710
'0:05.248',4.830,0.720
'0:05.250',4.840,0.730
'0:05.252',4.845,0.725
'0:05.254',4.865,0.715
'0:05.256',4.845,0.720
'0:05.258',4.820,0.720
'0:05.260',4.815,0.715
'0:05.262',4.820,0.710
'0:05.264',4.820,0.725
'0:05.266',4.845,0.725
'0:05.268',4.845,0.720
'0:05.270',4.850,0.720
'0:05.272',4.845,0.720
'0:05.274',4.855,0.720
'0:05.276',4.820,0.710
'0:05.278',4.810,0.715
'0:05.280',4.815,0.720
'0:05.282',4.835,0.725
'0:05.284',4.830,0.715
'0:05.286',4.855,0.735
'0:05.288',4.855,0.715
'0:05.290',4.845,0.720
'0:05.292',4.830,0.715
'0:05.294',4.845,0.725
'0:05.296',4.810,0.710
'0:05.298',4.805,0.720
'0:05.300',4.840,0.725
'0:05.302',4.845,0.725
'0:05.304',4.835,0.705
'0:05.306',4.840,0.720
'0:05.308',4.845,0.715
'0:05.310',4.845,0.720
'0:05.312',4.840,0.715
'0:05.314',4.830,0.715
'0:05.316',4.825,0.725
'0:05.318',4.835,0.720
'0:05.320',4.835,0.715
'0:05.322',4.830,0.725
'0:05.324',4.830,0.705
'0:05.326',4.860,0.715
'0:05.328',4.845,0.710
'0:05.330',4.835,0.720
'0:05.332',4.835,0.725
'0:05.334',4.840,0.720
'0:05.336',4.845,0.720
'0:05.338',4.830,0.730
'0:05.340',4.825,0.715
'0:05.342',4.835,0.720
'0:05.344',4.835,0.710
'0:05.346',4.840,0.710
'0:05.348',4.835,0.725
'0:05.350',4.860,0.720
'0:05.352',4.850,0.730
'0:05.354',4.830,0.715
'0:05.356',4.830,0.715
'0:05.358',4.815,0.720
'0:05.360',4.825,0.715
'0:05.362',4.825,0.710
'0:05.364',4.830,0.710
'0:05.366',4.855,0.725
'0:05.368',4.855,0.720
'0:05.370',4.845,0.730
'0:05.372',4.830,0.715
'0:05.374',4.840,0.715
'0:05.376',4.815,0.705
'0:05.378',4.805,0.715
'0:05.380',4.835,0.715
'0:05.382',4.835,0.725
'0:05.384',4.840,0.725
'0:05.386',4.840,0.720
'0:05.388',4.855,0.725
'0:05.390',4.845,0.715
'0:05.392',4.825,0.725
'0:05.394',4.815,0.705
'0:05.396',4.825,0.710
'0:05.398',4.835,0.730
'0:05.400',4.840,0.725
'0:05.402',4.840,0.735
'0:05.404',4.865,0.710
'0:05.406',4.840,0.720
'0:05.408',4.825,0.715
'0:05.410',4.815,0.715
'0:05.412',4.830,0.715
'0:05.414',4.825,0.725
'0:05.416',4.830,0.730
'0:05.418',4.855,0.725
'0:05.420',4.850,0.715
'0:05.422',4.840,0.720
'0:05.424',4.825,0.720
'0:05.426',4.815,0.720
'0:05.428',4.815,0.710
'0:05.430',4.825,0.715
'0:05.432',4.835,0.730
'0:05.434',4.855,0.720
'0:05.436',4.845,0.720
'0:05.438',4.835,0.725
'0:05.440',4.820,0.715
'0:05.442',4.825,0.725
'0:05.444',4.815,0.725
'0:05.446',4.825,0.715
'0:05.448',4.840,0.720
'0:05.450',4.855,0.720
'0:05.452',4.845,0.725
'0:05.454',4.835,0.715
'0:05.456',4.820,0.715
'0:05.458',4.815,0.715
'0:05.460',4.820,0.715
'0:05.462',4.830,0.725
'0:05.464',4.840,0.705
'0:05.466',4.850,0.725
'0:05.468',4.840,0.725
'0:05.470',4.845,0.730
'0:05.472',4.830,0.715
'0:05.474',4.810,0.715
'0:05.476',4.805,0.720
'0:05.478',4.840,0.720
'0:05.480',4.825,0.715
'0:05.482',4.840,0.720
'0:05.484',4.840,0.720
'0:05.486',4.865,0.730
'0:05.488',4.845,0.725
'0:05.490',4.835,0.715
'0:05.492',4.805,0.720
'0:05.494',4.815,0.715
'0:05.496',4.825,0.720
'0:05.498',4.820,0.710
'0:05.500',4.835,0.720
'0:05.502',4.850,0.725
'0:05.504',4.850,0.720
'0:05.506',4.840,0.725
'0:05.508',4.825,0.710
'0:05.510',4.825,0.715
'0:05.512',4.830,0.725
'0:05.514',4.805,0.705
'0:05.516',4.815,0.730
'0:05.518',4.840,0.720
'0:05.520',4.850,0.730
'0:05.522',4.840,0.725
'0:05.524',4.830,0.715
'0:05.526',4.850,0.710
'0:05.528',4.850,0.720
'0:05.530',4.835,0.720
'0:05.532',4.820,0.710
'0:05.534',4.825,0.720
'0:05.536',4.840,0.725
'0:05.538',4.835,0.720
'0:05.540',4.830,0.720
'0:05.542',4.850,0.710
'0:05.544',4.840,0.710
'0:05.546',4.840,0.715
'0:05.548',4.820,0.720
'0:05.550',4.835,0.730
'0:05.552',4.825,0.720
'0:05.554',4.840,0.715
'0:05.556',4.825,0.725
'0:05.558',4.820,0.725
'0:05.560',4.855,0.720
'0:05.562',4.840,0.710
'0:05.564',4.845,0.705
'0:05.566',4.840,0.725
'0:05.568',4.830,0.715
'0:05.570',4.835,0.725
'0:05.572',4.820,0.720
'0:05.574',4.815,0.710
'0:05.576',4.850,0.720
'0:05.578',4.835,0.715
'0:05.580',4.835,0.720
'0:05.582',4.840,0.720
'0:05.584',4.845,0.725
'0:05.586',4.825,0.715
'0:05.588',4.820,0.720
'0:05.590',4.855,0.710
'0:05.592',4.835,0.720
'0:05.594',4.845,0.715
'0:05.596',4.830,0.705
'0:05.598',4.820,0.725
'0:05.600',4.840,0.720
'0:05.602',4.825,0.730
'0:05.604',4.835,0.725
'0:05.606',4.850,0.705
'0:05.608',4.850,0.710
'0:05.610',4.845,0.720
'0:05.612',4.835,0.720
'0:05.614',4.820,0.725
'0:05.616',4.820,0.720
'0:05.618',4.835,0.715
'0:05.620',4.840,0.730
'0:05.622',4.830,0.725
'0:05.624',4.855,0.715
'0:05.626',4.850,0.725
'0:05.628',4.835,0.710
'0:05.630',4.830,0.715
'0:05.632',4.825,0.725
'0:05.634',4.830,0.720
'0:05.636',4.835,0.730
'0:05.638',4.835,0.705
'0:05.640',4.830,0.710
'0:05.642',4.840,0.725
'0:05.644',4.835,0.715
'0:05.646',4.840,0.720
'0:05.648',4.835,0.715
'0:05.650',4.850,0.730
'0:05.652',4.830,0.720
'0:05.654',4.815,0.715
'0:05.656',4.835,0.715
'0:05.658',4.830,0.720
'0:05.660',4.845,0.720
'0:05.662',4.835,0.710
'0:05.664',4.840,0.725
'0:05.666',4.860,0.720
'0:05.668',4.845,0.730
'0:05.670',4.840,0.710
'0:05.672',4.825,0.715
'0:05.674',4.835,0.710
'0:05.676',4.815,0.720
'0:05.678',4.815,0.725
'0:05.680',4.845,0.705
'0:05.682',4.840,0.720
'0:05.684',4.845,0.725
'0:05.686',4.845,0.725
'0:05.688',4.840,0.730
'0:05.690',4.845,0.705
'0:05.692',4.820,0.720
'0:05.694',4.810,0.715
'0:05.696',4.825,0.720
'0:05.698',4.830,0.725
'0:05.700',4.850,0.710
'0:05.702',4.835,0.725
'0:05.704',4.850,0.720
'0:05.706',4.860,0.720
'0:05.708',4.845,0.710
'0:05.710',4.825,0.715
'0:05.712',4.825,0.715
'0:05.714',4.825,0.710
'0:05.716',4.830,0.725
'0:05.718',4.825,0.720
'0:05.720',4.845,0.730
'0:05.722',4.845,0.710
'0:05.724',4.840,0.720
'0:05.726',4.840,0.715
'0:05.728',4.855,0.720
'0:05.730',4.830,0.705
'0:05.732',4.820,0.730
'0:05.734',4.825,0.715
'0:05.736',4.830,0.730
'0:05.738',4.845,0.725
'0:05.740',4.835,0.715
'0:05.742',4.840,0.720
'0:05.744',4.855,0.720
'0:05.746',4.845,0.720
'0:05.748',4.830,0.715
'0:05.750',4.825,0.720
'0:05.752',4.835,0.720
'0:05.754',4.825,0.725
'0:05.756',4.835,0.705
'0:05.758',4.835,0.710
'0:05.760',4.845,0.710
'0:05.762',4.835,0.720
'0:05.764',4.840,0.725
'0:05.766',4.855,0.720
'0:05.768',4.825,0.725
'0:05.770',4.835,0.730
'0:05.772',4.835,0.725
'0:05.774',4.830,0.710
'0:05.776',4.820,0.710
'0:05.778',4.835,0.710
'0:05.780',4.850,0.725
'0:05.782',4.835,0.725
'0:05.784',4.835,0.720
'0:05.786',4.825,0.720
'0:05.788',4.840,0.725
'0:05.790',4.835,0.710
'0:05.792',4.825,0.715
'0:05.794',4.860,0.725
'0:05.796',4.840,0.710
'0:05.798',4.830,0.715
'0:05.800',4.830,0.725
'0:05.802',4.825,0.725
'0:05.804',4.835,0.720
'0:05.806',4.835,0.720
'0:05.808',4.850,0.710
'0:05.810',4.840,0.720
'0:05.812',4.840,0.715
'0:05.814',4.845,0.710
'0:05.816',4.835,0.720
'0:05.818',4.830,0.725
'0:05.820',4.825,0.730
'0:05.822',4.840,0.715
'0:05.824',4.835,0.715
'0:05.826',4.830,0.715
'0:05.828',4.830,0.720
'0:05.830',4.855,0.705
'0:05.832',4.845,0.725
'0:05.834',4.835,0.725
'0:05.836',4.835,0.725
'0:05.838',4.835,0.715
'0:05.840',4.825,0.715
'0:05.842',4.810,0.715
'0:05.844',4.840,0.720
'0:05.846',4.835,0.720
'0:05.848',4.830,0.725
'0:05.850',4.845,0.720
'0:05.852',4.855,0.730
'0:05.854',4.845,0.720
'0:05.856',4.825,0.725
'0:05.858',4.805,0.715
'0:05.860',4.825,0.715
'0:05.862',4.820,0.710
'0:05.864',4.835,0.710
'0:05.866',4.855,0.730
'0:05.868',4.850,0.720
'0:05.870',4.840,0.735
'0:05.872',4.840,0.715
'0:05.874',4.830,0.720
'0:05.876',4.830,0.725
'0:05.878',4.810,0.705
'0:05.880',4.810,0.715
'0:05.882',4.835,0.715
'0:05.884',4.840,0.730
'0:05.886',4.850,0.735
'0:05.888',4.845,0.715
'0:05.890',4.845,0.720
'0:05.892',4.845,0.720
'0:05.894',4.830,0.720
'0:05.896',4.815,0.710
'0:05.898',4.810,0.720
'0:05.900',4.840,0.725
'0:05.902',4.825,0.725
'0:05.904',4.835,0.725
'0:05.906',4.850,0.710
'0:05.908',4.840,0.715
'0:05.910',4.840,0.720
'0:05.912',4.840,0.720
'0:05.914',4.825,0.710
'0:05.916',4.845,0.720
'0:05.918',4.830,0.730
'0:05.920',4.825,0.725
'0:05.922',4.835,0.735
'0:05.924',4.840,0.705
'0:05.926',4.835,0.715
'0:05.928',4.830,0.725
'0:05.930',4.855,0.720
'0:05.932',4.845,0.725
'0:05.934',4.840,0.720
'0:05.936',4.835,0.720
'0:05.938',4.825,0.720
'0:05.940',4.835,0.725
'0:05.942',4.820,0.715
'0:05.944',4.830,0.720
'0:05.946',4.845,0.720
'0:05.948',4.840,0.725
'0:05.950',4.845,0.720
'0:05.952',4.820,0.725
'0:05.954',4.835,0.725
'0:05.956',4.830,0.715
'0:05.958',4.820,0.715
'0:05.960',4.845,0.715
'0:05.962',4.845,0.715
'0:05.964',4.840,0.720
'0:05.966',4.845,0.715
'0:05.968',4.825,0.720
'0:05.970',4.835,0.730
'0:05.972',4.820,0.725
'0:05.974',4.825,0.715
'0:05.976',4.840,0.715
'0:05.978',4.840,0.710
'0:05.980',4.845,0.715
'0:05.982',4.835,0.730
'0:05.984',4.840,0.710
'0:05.986',4.830,0.730
'0:05.988',4.830,0.720
'0:05.990',4.860,0.715
'0:05.992',4.835,0.720
'0:05.994',4.840,0.710
'0:05.996',4.835,0.720
'0:05.998',4.835,0.725
'0:06.000',4.850,0.725
'0:06.002',4.830,0.730
'0:06.004',4.830,0.720
'0:06.006',4.835,0.725
'0:06.008',4.840,0.725
'0:06.010',4.840,0.720
'0:06.012',4.840,0.720
'0:06.014',4.830,0.720
'0:06.016',4.860,0.725
'0:06.018',4.840,0.715
'0:06.020',4.820,0.725
'0:06.022',4.825,0.715
'0:06.024',4.830,0.720
'0:06.026',4.830,0.715
'0:06.028',4.825,0.715
'0:06.030',4.845,0.720
'0:06.032',4.855,0.725
'0:06.034',4.860,0.730
'0:06.036',4.845,0.710
'0:06.038',4.835,0.720
'0:06.040',4.840,0.715
'0:06.042',4.830,0.720
'0:06.044',4.810,0.720
'0:06.046',4.825,0.705
'0:06.048',4.850,0.715
'0:06.050',4.855,0.725
'0:06.052',4.850,0.725
'0:06.054',4.845,0.730
'0:06.056',4.845,0.715
'0:06.058',4.845,0.715
'0:06.060',4.820,0.720
'0:06.062',4.815,0.710
'0:06.064',4.830,0.725
'0:06.066',4.835,0.710
'0:06.068',4.845,0.715
'0:06.070',4.835,0.730
'0:06.072',4.835,0.725
'0:06.074',4.860,0.725
'0:06.076',4.840,0.705
'0:06.078',4.825,0.725
'0:06.080',4.815,0.720
'0:06.082',4.830,0.725
'0:06.084',4.830,0.730
'0:06.086',4.825,0.720
'0:06.088',4.845,0.720
'0:06.090',4.850,0.720
'0:06.092',4.840,0.715
'0:06.094',4.830,0.720
'0:06.096',4.830,0.725
'0:06.098',4.840,0.725
'0:06.100',4.830,0.715
'0:06.102',4.820,0.720
'0:06.104',4.855,0.715
'0:06.106',4.850,0.720
'0:06.108',4.835,0.720
'0:06.110',4.835,0.705
'0:06.112',4.825,0.710
'0:06.114',4.840,0.715
'0:06.116',4.825,0.730
'0:06.118',4.825,0.725
'0:06.120',4.850,0.715
'0:06.122',4.850,0.720
'0:06.124',4.835,0.715
'0:06.126',4.835,0.720
'0:06.128',4.825,0.705
'0:06.130',4.825,0.720
'0:06.132',4.825,0.720
'0:06.134',4.850,0.725
'0:06.136',4.860,0.730
'0:06.138',4.860,0.720
'0:06.140',4.840,0.720
'0:06.142',4.815,0.715
'0:06.144',4.820,0.715
'0:06.146',4.820,0.705
'0:06.148',4.830,0.725
'0:06.150',4.855,0.725
'0:06.152',4.835,0.730
'0:06.154',4.845,0.720
'0:06.156',4.830,0.720
'0:06.158',4.830,0.715
'0:06.160',4.815,0.720
'0:06.162',4.830,0.710
'0:06.164',4.830,0.720
'0:06.166',4.845,0.725
'0:06.168',4.840,0.730
'0:06.170',4.875,0.720
'0:06.172',4.845,0.725
'0:06.174',4.835,0.705
'0:06.176',4.820,0.720
'0:06.178',4.820,0.715
'0:06.180',4.815,0.720
'0:06.182',4.835,0.720
'0:06.184',4.840,0.720
'0:06.186',4.840,0.730
'0:06.188',4.845,0.725
'0:06.190',4.870,0.715
'0:06.192',4.840,0.725
'0:06.194',4.825,0.715
'0:06.196',4.830,0.725
'0:06.198',4.835,0.710
'0:06.200',4.830,0.725
'0:06.202',4.825,0.730
'0:06.204',4.840,0.730
'0:06.206',4.855,0.730
'0:06.208',4.840,0.710
'0:06.210',4.840,0.720
'0:06.212',4.830,0.720
'0:06.214',4.855,0.715
'0:06.216',4.835,0.725
'0:06.218',4.825,0.720
'0:06.220',4.820,0.735
'0:06.222',4.835,0.730
'0:06.224',4.835,0.715
'0:06.226',4.830,0.720
'0:06.228',4.830,0.715
'0:06.230',4.830,0.725
'0:06.232',4.855,0.725
'0:06.234',4.845,0.715
'0:06.236',4.830,0.730
'0:06.238',4.835,0.715
'0:06.240',4.820,0.715
'0:06.242',4.825,0.720
'0:06.244',4.820,0.720
'0:06.246',4.835,0.720
'0:06.248',4.845,0.720
'0:06.250',4.855,0.730
'0:06.252',4.845,0.720
'0:06.254',4.845,0.730
'0:06.256',4.845,0.725
'0:06.258',4.825,0.725
'0:06.260',4.820,0.705
'0:06.262',4.820,0.720
'0:06.264',4.830,0.715
'0:06.266',4.835,0.735
'0:06.268',4.840,0.720
'0:06.270',4.855,0.715
'0:06.272',4.850,0.725
'0:06.274',4.845,0.715
'0:06.276',4.820,0.715
'0:06.278',4.830,0.720
'0:06.280',4.815,0.725
'0:06.282',4.830,0.725
'0:06.284',4.840,0.735
'0:06.286',4.850,0.720
'0:06.288',4.840,0.725
'0:06.290',4.845,0.720
'0:06.292',4.845,0.725
'0:06.294',4.840,0.715
'0:06.296',4.815,0.725
'0:06.298',4.815,0.720
'0:06.300',4.845,0.730
'0:06.302',4.830,0.715
'0:06.304',4.835,0.730
'0:06.306',4.855,0.725
'0:06.308',4.845,0.715
'0:06.310',4.835,0.720
'0:06.312',4.835,0.715
'0:06.314',4.850,0.725
'0:06.316',4.835,0.720
'0:06.318',4.815,0.725
'0:06.320',4.845,0.715
'0:06.322',4.840,0.735
'0:06.324',4.835,0.720
'0:06.326',4.820,0.705
'0:06.328',4.825,0.715
'0:06.330',4.860,0.720
'0:06.332',4.840,0.725
'0:06.334',4.825,0.730
'0:06.336',4.830,0.720
'0:06.338',4.835,0.725
'0:06.340',4.845,0.720
'0:06.342',4.830,0.725
'0:06.344',4.830,0.720
'0:06.346',4.855,0.700
'0:06.348',4.845,0.720
'0:06.350',4.830,0.720
'0:06.352',4.825,0.725
'0:06.354',4.830,0.730
'0:06.356',4.840,0.720
'0:06.358',4.825,0.720
'0:06.360',4.835,0.720
'0:06.362',4.865,0.715
'0:06.364',4.840,0.710
'0:06.366',4.825,0.725
'0:06.368',4.825,0.730
'0:06.370',4.835,0.720
'0:06.372',4.835,0.725
'0:06.374',4.835,0.715
'0:06.376',4.850,0.730
'0:06.378',4.845,0.715
'0:06.380',4.835,0.715
'0:06.382',4.835,0.725
'0:06.384',4.825,0.720
'0:06.386',4.835,0.730
'0:06.388',4.840,0.720
'0:06.390',4.835,0.715
'0:06.392',4.855,0.720
'0:06.394',4.840,0.720
'0:06.396',4.830,0.725
'0:06.398',4.825,0.720
'0:06.400',4.845,0.725
'0:06.402',4.830,0.725
'0:06.404',4.835,0.735
'0:06.406',4.860,0.715
'0:06.408',4.845,0.725
'0:06.410',4.840,0.720
'0:06.412',4.840,0.725
'0:06.414',4.840,0.710
'0:06.416',4.840,0.725
'0:06.418',4.820,0.730
'0:06.420',4.835,0.735
'0:06.422',4.835,0.730
'0:06.424',4.840,0.710
'0:06.426',4.835,0.715
'0:06.428',4.835,0.720
'0:06.430',4.855,0.715
'0:06.432',4.855,0.735
'0:06.434',4.840,0.715
'0:06.436',4.840,0.730
'0:06.438',4.830,0.720
'0:06.440',4.835,0.720
'0:06.442',4.820,0.715
'0:06.444',4.840,0.730
'0:06.446',4.840,0.710
'0:06.448',4.835,0.730
'0:06.450',4.845,0.725
'0:06.452',4.870,0.735
'0:06.454',4.845,0.715
'0:06.456',4.825,0.720
'0:06.458',4.815,0.705
'0:06.460',4.820,0.725
'0:06.462',4.835,0.730
'0:06.464',4.840,0.710
'0:06.466',4.835,0.720
'0:06.468',4.870,0.720
'0:06.470',4.860,0.730
'0:06.472',4.835,0.730
'0:06.474',4.825,0.700
'0:06.476',4.820,0.720
'0:06.478',4.835,0.720
'0:06.480',4.830,0.720
'0:06.482',4.835,0.725
'0:06.484',4.840,0.720
'0:06.486',4.865,0.715
'0:06.488',4.850,0.725
'0:06.490',4.835,0.720
'0:06.492',4.825,0.720
'0:06.494',4.820,0.715
'0:06.496',4.835,0.725
'0:06.498',4.825,0.720
'0:06.500',4.835,0.730
'0:06.502',4.855,0.730
'0:06.504',4.860,0.715
'0:06.506',4.850,0.715
'0:06.508',4.835,0.720
'0:06.510',4.815,0.715
'0:06.512',4.830,0.715
'0:06.514',4.830,0.715
'0:06.516',4.835,0.720
'0:06.518',4.850,0.725
'0:06.520',4.855,0.730
'0:06.522',4.850,0.720
'0:06.524',4.825,0.720
'0:06.526',4.815,0.720
'0:06.528',4.830,0.725
'0:06.530',4.825,0.720
'0:06.532',4.830,0.715
'0:06.534',4.850,0.725
'0:06.536',4.865,0.725
'0:06.538',4.860,0.725
'0:06.540',4.830,0.720
'0:06.542',4.825,0.710
'0:06.544',4.810,0.715
'0:06.546',4.830,0.715
'0:06.548',4.830,0.730
'0:06.550',4.835,0.725
'0:06.552',4.855,0.705
'0:06.554',4.860,0.720
'0:06.556',4.845,0.725
'0:06.558',4.820,0.720
'0:06.560',4.825,0.725
'0:06.562',4.835,0.710
'0:06.564',4.835,0.725
'0:06.566',4.845,0.725
'0:06.568',4.855,0.740
'0:06.570',4.850,0.720
'0:06.572',4.840,0.725
'0:06.574',4.835,0.710
'0:06.576',4.840,0.720
'0:06.578',4.820,0.715
'0:06.580',4.825,0.725
'0:06.582',4.825,0.725
'0:06.584',4.840,0.725
'0:06.586',4.845,0.725
'0:06.588',4.845,0.720
'0:06.590',4.855,0.725
'0:06.592',4.840,0.720
'0:06.594',4.840,0.720
'0:06.596',4.825,0.715
'0:06.598',4.835,0.730
'0:06.600',4.830,0.725
'0:06.602',4.825,0.725
'0:06.604',4.835,0.725
'0:06.606',4.850,0.715
'0:06.608',4.845,0.725
'0:06.610',4.840,0.730
'0:06.612',4.840,0.710
'0:06.614',4.830,0.715
'0:06.616',4.850,0.715
'0:06.618',4.835,0.725
'0:06.620',4.820,0.735
'0:06.622',4.835,0.710
'0:06.624',4.830,0.725
'0:06.626',4.835,0.725
'0:06.628',4.835,0.720
'0:06.630',4.820,0.715
'0:06.632',4.860,0.725
'0:06.634',4.850,0.725
'0:06.636',4.845,0.725
'0:06.638',4.830,0.725
'0:06.640',4.840,0.710
'0:06.642',4.820,0.725
'0:06.644',4.820,0.720
'0:06.646',4.845,0.720
'0:06.648',4.845,0.730
'0:06.650',4.860,0.715
'0:06.652',4.845,0.725
'0:06.654',4.840,0.730
'0:06.656',4.850,0.720
'0:06.658',4.815,0.725
'0:06.660',4.820,0.715
'0:06.662',4.835,0.720
'0:06.664',4.835,0.720
'0:06.666',4.845,0.730
'0:06.668',4.845,0.725
'0:06.670',4.840,0.720
'0:06.672',4.855,0.725
'0:06.674',4.825,0.715
'0:06.676',4.810,0.715
'0:06.678',4.825,0.710
'0:06.680',4.830,0.720
'0:06.682',4.845,0.735
'0:06.684',4.840,0.715
'0:06.686',4.845,0.725
'0:06.688',4.855,0.725
'0:06.690',4.825,0.725
'0:06.692',4.820,0.710
'0:06.694',4.820,0.710
'0:06.696',4.835,0.715
'0:06.698',4.835,0.725
'0:06.700',4.845,0.735
'0:06.702',4.865,0.710
'0:06.704',4.855,0.730
'0:06.706',4.830,0.725
'0:06.708',4.815,0.720
'0:06.710',4.835,0.725
'0:06.712',4.840,0.710
'0:06.714',4.835,0.725
'0:06.716',4.840,0.715
'0:06.718',4.860,0.725
'0:06.720',4.860,0.715
'0:06.722',4.840,0.730
'0:06.724',4.815,0.720
'0:06.726',4.825,0.720
'0:06.728',4.815,0.710
'0:06.730',4.820,0.720
'0:06.732',4.850,0.730
'0:06.734',4.840,0.725
'0:06.736',4.840,0.730
'0:06.738',4.840,0.725
'0:06.740',4.860,0.730
'0:06.742',4.830,0.715
'0:06.744',4.805,0.720
'0:06.746',4.815,0.715
'0:06.748',4.830,0.725
'0:06.750',4.835,0.715
'0:06.752',4.840,0.720
'0:06.754',4.855,0.725
'0:06.756',4.865,0.720
'0:06.758',4.835,0.725
'0:06.760',4.830,0.705
'0:06.762',4.825,0.715
'0:06.764',4.830,0.715
'0:06.766',4.830,0.730
'0:06.768',4.825,0.725
'0:06.770',4.860,0.715
'0:06.772',4.850,0.725
'0:06.774',4.840,0.715
'0:06.776',4.840,0.725
'0:06.778',4.845,0.700
'0:06.780',4.835,0.715
'0:06.782',4.825,0.720
'0:06.784',4.840,0.730
'0:06.786',4.840,0.720
'0:06.788',4.845,0.720
'0:06.790',4.840,0.725
'0:06.792',4.865,0.720
'0:06.794',4.835,0.715
'0:06.796',4.810,0.720
'0:06.798',4.825,0.725
'0:06.800',4.835,0.720
'0:06.802',4.840,0.730
'0:06.804',4.830,0.720
'0:06.806',4.860,0.730
'0:06.808',4.840,0.715
'0:06.810',4.835,0.715
'0:06.812',4.810,0.720
'0:06.814',4.820,0.720
'0:06.816',4.830,0.725
'0:06.818',4.840,0.730
'0:06.820',4.835,0.720
'0:06.822',4.845,0.725
'0:06.824',4.860,0.710
'0:06.826',4.825,0.720
'0:06.828',4.810,0.730
'0:06.830',4.830,0.710
'0:06.832',4.845,0.725
'0:06.834',4.845,0.725
'0:06.836',4.850,0.725
'0:06.838',4.845,0.735
'0:06.840',4.850,0.705
'0:06.842',4.825,0.715
'0:06.844',4.815,0.720
'0:06.846',4.830,0.720
'0:06.848',4.835,0.735
'0:06.850',4.845,0.720
'0:06.852',4.850,0.735
'0:06.854',4.845,0.730
'0:06.856',4.860,0.725
'0:06.858',4.825,0.720
'0:06.860',4.825,0.720
'0:06.862',4.820,0.720
'0:06.864',4.825,0.720
'0:06.866',4.820,0.715
'0:06.868',4.835,0.720
'0:06.870',4.860,0.730
'0:06.872',4.850,0.715
'0:06.874',4.840,0.720
'0:06.876',4.825,0.715
'0:06.878',4.840,0.725
'0:06.880',4.825,0.720
'0:06.882',4.825,0.720
'0:06.884',4.835,0.720
'0:06.886',4.845,0.720
'0:06.888',4.850,0.730
'0:06.890',4.830,0.700
'0:06.892',4.835,0.715
'0:06.894',4.855,0.715
'0:06.896',4.840,0.720
'0:06.898',4.825,0.715
'0:06.900',4.835,0.720
'0:06.902',4.845,0.725
'0:06.904',4.835,0.720
'0:06.906',4.825,0.725
'0:06.908',4.850,0.710
'0:06.910',4.855,0.720
'0:06.912',4.840,0.715
'0:06.914',4.845,0.715
'0:06.916',4.845,0.730
'0:06.918',4.855,0.710
'0:06.920',4.840,0.725
'0:06.922',4.820,0.720
'0:06.924',4.820,0.720
'0:06.926',4.835,0.720
'0:06.928',4.835,0.710
'0:06.930',4.835,0.720
'0:06.932',4.835,0.730
'0:06.934',4.865,0.730
'0:06.936',4.845,0.720
'0:06.938',4.840,0.720
'0:06.940',4.820,0.715
'0:06.942',4.825,0.725
'0:06.944',4.825,0.715
'0:06.946',4.840,0.720
'0:06.948',4.835,0.720
'0:06.950',4.855,0.730
'0:06.952',4.845,0.720
'0:06.954',4.855,0.735
'0:06.956',4.850,0.725
'0:06.958',4.815,0.715
'0:06.960',4.815,0.725
'0:06.962',4.820,0.715
'0:06.964',4.840,0.730
'0:06.966',4.835,0.725
'0:06.968',4.840,0.725
'0:06.970',4.855,0.725
'0:06.972',4.850,0.725
'0:06.974',4.835,0.720
'0:06.976',4.830,0.715
'0:06.978',4.825,0.720
'0:06.980',4.820,0.720
'0:06.982',4.820,0.735
'0:06.984',4.840,0.710
'0:06.986',4.855,0.725
'0:06.988',4.845,0.730
'0:06.990',4.840,0.720
'0:06.992',4.840,0.720
'0:06.994',4.835,0.710
'0:06.996',4.825,0.720
'0:06.998',4.810,0.720
'0:07.000',4.835,0.730
'0:07.002',4.835,0.725
'0:07.004',4.840,0.725
'0:07.006',4.840,0.730
'0:07.008',4.840,0.725
'0:07.010',4.845,0.715
'0:07.012',4.825,0.715
'0:07.014',4.820,0.725
'0:07.016',4.825,0.725
'0:07.018',4.830,0.725
'0:07.020',4.825,0.720
'0:07.022',4.835,0.725
'0:07.024',4.860,0.730
'0:07.026',4.845,0.710
'0:07.028',4.830,0.720
'0:07.030',4.840,0.715
'0:07.032',4.830,0.730
'0:07.034',4.835,0.725
'0:07.036',4.830,0.725
'0:07.038',4.825,0.720
'0:07.040',4.855,0.720
'0:07.042',4.835,0.720
'0:07.044',4.835,0.725
'0:07.046',4.835,0.705
'0:07.048',4.825,0.725
'0:07.050',4.855,0.725
'0:07.052',4.820,0.730
'0:07.054',4.830,0.720
'0:07.056',4.840,0.715
'0:07.058',4.845,0.715
'0:07.060',4.830,0.720
'0:07.062',4.835,0.725
'0:07.064',4.855,0.715
'0:07.066',4.845,0.725
'0:07.068',4.820,0.730
'0:07.070',4.840,0.725
'0:07.072',4.835,0.720
'0:07.074',4.835,0.715
'0:07.076',4.830,0.725
'0:07.078',4.840,0.715
'0:07.080',4.850,0.725
'0:07.082',4.835,0.720
'0:07.084',4.825,0.725
'0:07.086',4.830,0.730
'0:07.088',4.840,0.720
'0:07.090',4.840,0.720
'0:07.092',4.825,0.715
'0:07.094',4.855,0.725
'0:07.096',4.845,0.715
'0:07.098',4.830,0.725
'0:07.100',4.825,0.720
'0:07.102',4.830,0.730
'0:07.104',4.835,0.725
'0:07.106',4.840,0.715
'0:07.108',4.845,0.720
'0:07.110',4.850,0.725
'0:07.112',4.835,0.730
'0:07.114',4.830,0.710
'0:07.116',4.820,0.720
'0:07.118',4.830,0.725
'0:07.120',4.825,0.730
'0:07.122',4.855,0.720
'0:07.124',4.840,0.725
'0:07.126',4.845,0.720
'0:07.128',4.835,0.725
'0:07.130',4.860,0.715
'0:07.132',4.835,0.725
'0:07.134',4.825,0.725
'0:07.136',4.830,0.730
'0:07.138',4.840,0.710
'0:07.140',4.835,0.715
'0:07.142',4.830,0.725
'0:07.144',4.850,0.720
'0:07.146',4.840,0.705
'0:07.148',4.840,0.725
'0:07.150',4.845,0.720
'0:07.152',4.855,0.730
'0:07.154',4.835,0.720
'0:07.156',4.825,0.715
'0:07.158',4.835,0.715
'0:07.160',4.830,0.720
'0:07.162',4.825,0.725
'0:07.164',4.840,0.710
'0:07.166',4.865,0.730
'0:07.168',4.860,0.715
'0:07.170',4.840,0.725
'0:07.172',4.840,0.715
'0:07.174',4.820,0.715
'0:07.176',4.825,0.730
'0:07.178',4.815,0.705
'0:07.180',4.820,0.720
'0:07.182',4.850,0.730
'0:07.184',4.855,0.730
'0:07.186',4.850,0.710
'0:07.188',4.845,0.725
'0:07.190',4.855,0.715
'0:07.192',4.825,0.725
'0:07.194',4.825,0.710
'0:07.196',4.805,0.730
'0:07.198',4.830,0.725
'0:07.200',4.835,0.730
'0:07.202',4.850,0.715
'0:07.204',4.855,0.730
'0:07.206',4.845,0.720
'0:07.208',4.835,0.730
'0:07.210',4.840,0.705
'0:07.212',4.840,0.720
'0:07.214',4.825,0.725
'0:07.216',4.825,0.725
'0:07.218',4.830,0.735
'0:07.220',4.850,0.720
'0:07.222',4.835,0.725
'0:07.224',4.840,0.720
'0:07.226',4.845,0.715
'0:07.228',4.855,0.715
'0:07.230',4.830,0.715
'0:07.232',4.820,0.725
'0:07.234',4.835,0.725
'0:07.236',4.845,0.715
'0:07.238',4.845,0.725
'0:07.240',4.835,0.715
'0:07.242',4.835,0.720
'0:07.244',4.855,0.725
'0:07.246',4.820,0.705
'0:07.248',4.815,0.720
'0:07.250',4.845,0.720
'0:07.252',4.840,0.735
'0:07.254',4.855,0.730
'0:07.256',4.850,0.715
'0:07.258',4.830,0.725
'0:07.260',4.850,0.715
'0:07.262',4.820,0.720
'0:07.264',4.810,0.710
'0:07.266',4.845,0.725
'0:07.268',4.855,0.725
'0:07.270',4.850,0.725
'0:07.272',4.840,0.725
'0:07.274',4.850,0.705
'0:07.276',4.830,0.720
'0:07.278',4.815,0.715
'0:07.280',4.840,0.730
'0:07.282',4.840,0.725
'0:07.284',4.850,0.720
'0:07.286',4.840,0.730
'0:07.288',4.840,0.730
'0:07.290',4.855,0.720
'0:07.292',4.820,0.715
'0:07.294',4.820,0.725
'0:07.296',4.830,0.720
'0:07.298',4.835,0.725
'0:07.300',4.845,0.720
'0:07.302',4.845,0.725
'0:07.304',4.860,0.730
'0:07.306',4.840,0.720
'0:07.308',4.830,0.715
'0:07.310',4.825,0.725
'0:07.312',4.820,0.705
'0:07.314',4.815,0.720
'0:07.316',4.850,0.720
'0:07.318',4.840,0.725
'0:07.320',4.840,0.725
'0:07.322',4.845,0.720
'0:07.324',4.860,0.715
'0:07.326',4.845,0.720
'0:07.328',4.825,0.730
'0:07.330',4.820,0.715
'0:07.332',4.830,0.730
'0:07.334',4.825,0.725
'0:07.336',4.835,0.730
'0:07.338',4.840,0.710
'0:07.340',4.855,0.720
'0:07.342',4.840,0.715
'0:07.344',4.840,0.720
'0:07.346',4.820,0.715
'0:07.348',4.845,0.720
'0:07.350',4.840,0.730
'0:07.352',4.830,0.730
'0:07.354',4.835,0.730
'0:07.356',4.845,0.715
'0:07.358',4.830,0.725
'0:07.360',4.845,0.720
'0:07.362',4.845,0.720
'0:07.364',4.845,0.710
'0:07.366',4.845,0.730
'0:07.368',4.835,0.730
'0:07.370',4.840,0.720
'0:07.372',4.825,0.720
'0:07.374',4.815,0.715
'0:07.376',4.840,0.720
'0:07.378',4.835,0.715
'0:07.380',4.840,0.720
'0:07.382',4.850,0.730
'0:07.384',4.865,0.735
'0:07.386',4.845,0.725
'0:07.388',4.835,0.725
'0:07.390',4.825,0.710
'0:07.392',4.810,0.720
'0:07.394',4.820,0.720
'0:07.396',4.825,0.710
'0:07.398',4.835,0.725
'0:07.400',4.850,0.730
'0:07.402',4.850,0.725
'0:07.404',4.850,0.715
'0:07.406',4.840,0.720
'0:07.408',4.820,0.720
'0:07.410',4.805,0.720
'0:07.412',4.835,0.710
'0:07.414',4.840,0.725
'0:07.416',4.840,0.725
'0:07.418',4.840,0.725
'0:07.420',4.865,0.720
'0:07.422',4.845,0.725
'0:07.424',4.835,0.715
'0:07.426',4.810,0.725
'0:07.428',4.835,0.715
'0:07.430',4.825,0.725
'0:07.432',4.830,0.725
'0:07.434',4.855,0.730
'0:07.436',4.850,0.715
'0:07.438',4.840,0.730
'0:07.440',4.835,0.725
'0:07.442',4.830,0.715
'0:07.444',4.815,0.720
'0:07.446',4.820,0.720
'0:07.448',4.840,0.725
'0:07.450',4.845,0.725
'0:07.452',4.845,0.725
'0:07.454',4.835,0.730
'0:07.456',4.850,0.730
'0:07.458',4.815,0.710
'0:07.460',4.810,0.725
'0:07.462',4.820,0.720
'0:07.464',4.830,0.730
'0:07.466',4.840,0.715
'0:07.468',4.835,0.725
'0:07.470',4.865,0.725
'0:07.472',4.855,0.725
'0:07.474',4.830,0.720
'0:07.476',4.830,0.710
'0:07.478',4.815,0.730
'0:07.480',4.825,0.715
'0:07.482',4.825,0.735
'0:07.484',4.840,0.715
'0:07.486',4.850,0.730
'0:07.488',4.850,0.725
'0:07.490',4.835,0.725
'0:07.492',4.835,0.725
'0:07.494',4.850,0.720
'0:07.496',4.820,0.720
'0:07.498',4.815,0.720
'0:07.500',4.835,0.725
'0:07.502',4.835,0.720
'0:07.504',4.845,0.730
'0:07.506',4.835,0.725
'0:07.508',4.840,0.715
'0:07.510',4.850,0.730
'0:07.512',4.835,0.710
'0:07.514',4.830,0.725
'0:07.516',4.835,0.720
'0:07.518',4.840,0.720
'0:07.520',4.835,0.730
'0:07.522',4.830,0.720
'0:07.524',4.835,0.725
'0:07.526',4.850,0.730
'0:07.528',4.845,0.715
'0:07.530',4.835,0.725
'0:07.532',4.840,0.720
'0:07.534',4.830,0.730
'0:07.536',4.825,0.730
'0:07.538',4.825,0.715
'0:07.540',4.830,0.715
'0:07.542',4.860,0.710
'0:07.544',4.845,0.725
'0:07.546',4.840,0.725
'0:07.548',4.840,0.720
'0:07.550',4.830,0.715
'0:07.552',4.830,0.725
'0:07.554',4.840,0.730
'0:07.556',4.840,0.725
'0:07.558',4.825,0.725
'0:07.560',4.840,0.710
'0:07.562',4.860,0.710
'0:07.564',4.845,0.720
'0:07.566',4.840,0.720
'0:07.568',4.830,0.730
'0:07.570',4.845,0.720
'0:07.572',4.830,0.720
'0:07.574',4.820,0.720
'0:07.576',4.865,0.720
'0:07.578',4.850,0.710
'0:07.580',4.840,0.715
'0:07.582',4.835,0.725
'0:07.584',4.825,0.720
'0:07.586',4.835,0.730
'0:07.588',4.825,0.715
'0:07.590',4.825,0.725
'0:07.592',4.850,0.725
'0:07.594',4.845,0.715
'0:07.596',4.835,0.725
'0:07.598',4.835,0.715
'0:07.600',4.835,0.730
'0:07.602',4.835,0.720
'0:07.604',4.835,0.720
'0:07.606',4.845,0.720
'0:07.608',4.840,0.720
'0:07.610',4.845,0.720
'0:07.612',4.830,0.705
'0:07.614',4.835,0.725
'0:07.616',4.855,0.725
'0:07.618',4.840,0.725
'0:07.620',4.820,0.735
'0:07.622',4.840,0.705
'0:07.624',4.835,0.715
'0:07.626',4.845,0.715
'0:07.628',4.835,0.720
'0:07.630',4.845,0.725
'0:07.632',4.840,0.725
'0:07.634',4.860,0.715
'0:07.636',4.845,0.725
'0:07.638',4.825,0.730
'0:07.640',4.825,0.720
'0:07.642',4.830,0.730
'0:07.644',4.835,0.710
'0:07.646',4.835,0.725
'0:07.648',4.830,0.725
'0:07.650',4.875,0.730
'0:07.652',4.860,0.720
'0:07.654',4.850,0.725
'0:07.656',4.840,0.720
'0:07.658',4.815,0.710
'0:07.660',4.820,0.720
'0:07.662',4.815,0.710
'0:07.664',4.820,0.720
'0:07.666',4.855,0.730
'0:07.668',4.850,0.715
'0:07.670',4.845,0.730
'0:07.672',4.855,0.720
'0:07.674',4.830,0.720
'0:07.676',4.840,0.720
'0:07.678',4.820,0.710
'0:07.680',4.810,0.725
'0:07.682',4.845,0.720
'0:07.684',4.845,0.730
'0:07.686',4.850,0.725
'0:07.688',4.845,0.715
'0:07.690',4.840,0.720
'0:07.692',4.850,0.710
'0:07.694',4.820,0.720
'0:07.696',4.810,0.720
'0:07.698',4.830,0.720
'0:07.700',4.850,0.720
'0:07.702',4.840,0.725
'0:07.704',4.845,0.725
'0:07.706',4.865,0.715
'0:07.708',4.840,0.720
'0:07.710',4.825,0.720
'0:07.712',4.815,0.725
'0:07.714',4.830,0.715
'0:07.716',4.835,0.725
'0:07.718',4.835,0.730
'0:07.720',4.865,0.730
'0:07.722',4.850,0.710
'0:07.724',4.820,0.720
'0:07.726',4.815,0.725
'0:07.728',4.825,0.715
'0:07.730',4.835,0.730
'0:07.732',4.835,0.715
'0:07.734',4.845,0.730
'0:07.736',4.855,0.730
'0:07.738',4.845,0.720
'0:07.740',4.815,0.720
'0:07.742',4.820,0.720
'0:07.744',4.835,0.720
'0:07.746',4.835,0.725
'0:07.748',4.840,0.715
'0:07.750',4.845,0.725
'0:07.752',4.865,0.715
'0:07.754',4.845,0.730
'0:07.756',4.830,0.720
'0:07.758',4.825,0.705
'0:07.760',4.820,0.715
'0:07.762',4.830,0.720
'0:07.764',4.830,0.730
'0:07.766',4.840,0.730
'0:07.768',4.870,0.720
'0:07.770',4.850,0.725
'0:07.772',4.835,0.730
'0:07.774',4.820,0.720
'0:07.776',4.820,0.710
'0:07.778',4.830,0.715
'0:07.780',4.830,0.715
'0:07.782',4.855,0.720
'0:07.784',4.845,0.725
'0:07.786',4.850,0.725
'0:07.788',4.850,0.730
'0:07.790',4.840,0.720
'0:07.792',4.835,0.720
'0:07.794',4.815,0.710
'0:07.796',4.810,0.730
'0:07.798',4.830,0.730
'0:07.800',4.840,0.725
'0:07.802',4.845,0.720
'0:07.804',4.845,0.730
'0:07.806',4.855,0.730
'0:07.808',4.840,0.720
'0:07.810',4.835,0.720
'0:07.812',4.820,0.715
'0:07.814',4.815,0.720
'0:07.816',4.830,0.730
'0:07.818',4.825,0.715
'0:07.820',4.835,0.720
'0:07.822',4.850,0.725
'0:07.824',4.840,0.720
'0:07.826',4.840,0.725
'0:07.828',4.840,0.705
'0:07.830',4.825,0.715
'0:07.832',4.840,0.725
'0:07.834',4.830,0.725
'0:07.836',4.820,0.720
'0:07.838',4.835,0.715
'0:07.840',4.840,0.720
'0:07.842',4.825,0.725
'0:07.844',4.825,0.720
'0:07.846',4.850,0.715
'0:07.848',4.845,0.720
'0:07.850',4.850,0.730
'0:07.852',4.835,0.725
'0:07.854',4.840,0.720
'0:07.856',4.820,0.725
'0:07.858',4.815,0.715
'0:07.860',4.845,0.720
'0:07.862',4.840,0.710
'0:07.864',4.830,0.725
'0:07.866',4.835,0.725
'0:07.868',4.870,0.735
'0:07.870',4.845,0.725
'0:07.872',4.825,0.730
'0:07.874',4.830,0.720
'0:07.876',4.825,0.715
'0:07.878',4.830,0.715
'0:07.880',4.830,0.720
'0:07.882',4.845,0.725
'0:07.884',4.870,0.730
'0:07.886',4.850,0.720
'0:07.888',4.835,0.725
'0:07.890',4.820,0.715
'0:07.892',4.805,0.720
'0:07.894',4.835,0.725
'0:07.896',4.825,0.710
'0:07.898',4.830,0.720
'0:07.900',4.870,0.725
'0:07.902',4.855,0.730
'0:07.904',4.835,0.735
'0:07.906',4.830,0.710
'0:07.908',4.820,0.720
'0:07.910',4.830,0.715
'0:07.912',4.830,0.730
'0:07.914',4.835,0.710
'0:07.916',4.865,0.725
'0:07.918',4.845,0.720
'0:07.920',4.835,0.725
'0:07.922',4.825,0.725
'0:07.924',4.835,0.715
'0:07.926',4.825,0.720
'0:07.928',4.830,0.720
'0:07.930',4.855,0.720
'0:07.932',4.845,0.725
'0:07.934',4.845,0.715
'0:07.936',4.845,0.725
'0:07.938',4.825,0.715
'0:07.940',4.825,0.725
'0:07.942',4.820,0.720
'0:07.944',4.840,0.720
'0:07.946',4.835,0.715
'0:07.948',4.845,0.725
'0:07.950',4.845,0.710
'0:07.952',4.850,0.730
'0:07.954',4.855,0.720
'0:07.956',4.835,0.710
'0:07.958',4.815,0.715
'0:07.960',4.815,0.720
'0:07.962',4.835,0.720
'0:07.964',4.830,0.715
'0:07.966',4.835,0.725
'0:07.968',4.865,0.725
'0:07.970',4.850,0.725
'0:07.972',4.845,0.720
'0:07.974',4.835,0.715
'0:07.976',4.840,0.725
'0:07.978',4.820,0.715
'0:07.980',4.825,0.730
'0:07.982',4.835,0.715
'0:07.984',4.845,0.720
'0:07.986',4.845,0.730
'0:07.988',4.850,0.725
'0:07.990',4.840,0.720
'0:07.992',4.855,0.720
'0:07.994',4.835,0.720
'0:07.996',4.820,0.720
'0:07.998',4.830,0.725
'0:08.000',4.840,0.710
'0:08.002',4.840,0.720
'0:08.004',4.840,0.725
'0:08.006',4.840,0.725
'0:08.008',4.850,0.725
'0:08.010',4.840,0.705
'0:08.012',4.825,0.720
'0:08.014',4.820,0.725
'0:08.016',4.845,0.725
'0:08.018',4.830,0.715
'0:08.020',4.835,0.720
'0:08.022',4.855,0.735
'0:08.024',4.850,0.710
'0:08.026',4.840,0.720
'0:08.028',4.825,0.715
'0:08.030',4.825,0.725
'0:08.032',4.830,0.730
'0:08.034',4.825,0.715
'0:08.036',4.840,0.725
'0:08.038',4.855,0.725
'0:08.040',4.850,0.725
'0:08.042',4.840,0.710
'0:08.044',4.820,0.715
'0:08.046',4.825,0.725
'0:08.048',4.830,0.725
'0:08.050',4.835,0.730
'0:08.052',4.840,0.725
'0:08.054',4.855,0.720
'0:08.056',4.850,0.720
'0:08.058',4.830,0.715
'0:08.060',4.820,0.720
'0:08.062',4.820,0.705
'0:08.064',4.825,0.725
'0:08.066',4.830,0.730
'0:08.068',4.855,0.735
'0:08.070',4.855,0.725
'0:08.072',4.845,0.730
'0:08.074',4.835,0.710
'0:08.076',4.835,0.730
'0:08.078',4.820,0.710
'0:08.080',4.825,0.720
'0:08.082',4.830,0.725
'0:08.084',4.850,0.725
'0:08.086',4.840,0.720
'0:08.088',4.835,0.725
'0:08.090',4.865,0.725
'0:08.092',4.845,0.710
'0:08.094',4.825,0.720
'0:08.096',4.820,0.715
'0:08.098',4.835,0.725
'0:08.100',4.830,0.720
'0:08.102',4.825,0.725
'0:08.104',4.850,0.720
'0:08.106',4.845,0.720
'0:08.108',4.845,0.725
'0:08.110',4.835,0.720
'0:08.112',4.835,0.715
'0:08.114',4.850,0.725
'0:08.116',4.840,0.725
'0:08.118',4.820,0.730
'0:08.120',4.835,0.720
'0:08.122',4.830,0.720
'0:08.124',4.835,0.720
'0:08.126',4.835,0.720
'0:08.128',4.830,0.720
'0:08.130',4.830,0.720
'0:08.132',4.865,0.715
'0:08.134',4.855,0.720
'0:08.136',4.835,0.730
'0:08.138',4.825,0.730
'0:08.140',4.835,0.725
'0:08.142',4.830,0.715
'0:08.144',4.835,0.715
'0:08.146',4.835,0.725
'0:08.148',4.845,0.720
'0:08.150',4.865,0.725
'0:08.152',4.850,0.720
'0:08.154',4.835,0.730
'0:08.156',4.830,0.730
'0:08.158',4.810,0.725
'0:08.160',4.835,0.720
'0:08.162',4.825,0.720
'0:08.164',4.830,0.715
'0:08.166',4.860,0.735
'0:08.168',4.860,0.725
'0:08.170',4.850,0.725
'0:08.172',4.835,0.730
'0:08.174',4.820,0.715
'0:08.176',4.815,0.715
'0:08.178',4.835,0.725
'0:08.180',4.830,0.725
'0:08.182',4.835,0.720
'0:08.184',4.840,0.730
'0:08.186',4.860,0.725
'0:08.188',4.850,0.725
'0:08.190',4.820,0.705
'0:08.192',4.815,0.725
'0:08.194',4.830,0.725
'0:08.196',4.825,0.725
'0:08.198',4.820,0.730
'0:08.200',4.870,0.715
'0:08.202',4.850,0.725
'0:08.204',4.845,0.725
'0:08.206',4.840,0.725
'0:08.208',4.820,0.720
'0:08.210',4.825,0.715
'0:08.212',4.825,0.720
'0:08.214',4.820,0.715
'0:08.216',4.855,0.725
'0:08.218',4.850,0.720
'0:08.220',4.850,0.725
'0:08.222',4.840,0.730
'0:08.224',4.840,0.715
'0:08.226',4.835,0.725
'0:08.228',4.815,0.710
'0:08.230',4.815,0.720
'0:08.232',4.835,0.735
'0:08.234',4.850,0.725
'0:08.236',4.840,0.725
'0:08.238',4.840,0.720
'0:08.240',4.835,0.715
'0:08.242',4.860,0.730
'0:08.244',4.835,0.715
'0:08.246',4.805,0.715
'0:08.248',4.825,0.725
'0:08.250',4.825,0.735
'0:08.252',4.835,0.730
'0:08.254',4.830,0.720
'0:08.256',4.835,0.720
'0:08.258',4.860,0.720
'0:08.260',4.845,0.725
'0:08.262',4.840,0.730
'0:08.264',4.835,0.720
'0:08.266',4.825,0.730
'0:08.268',4.840,0.725
'0:08.270',4.830,0.730
'0:08.272',4.840,0.730
'0:08.274',4.840,0.705
'0:08.276',4.845,0.715
'0:08.278',4.835,0.715
'0:08.280',4.830,0.720
'0:08.282',4.830,0.730
'0:08.284',4.840,0.720
'0:08.286',4.830,0.725
'0:08.288',4.835,0.725
'0:08.290',4.850,0.725
'0:08.292',4.850,0.710
'0:08.294',4.840,0.720
'0:08.296',4.835,0.720
'0:08.298',4.855,0.725
'0:08.300',4.835,0.720
'0:08.302',4.820,0.720
'0:08.304',4.840,0.720
'0:08.306',4.840,0.715
'0:08.308',4.850,0.720
'0:08.310',4.840,0.720
'0:08.312',4.825,0.710
'0:08.314',4.840,0.730
'0:08.316',4.830,0.725
'0:08.318',4.825,0.720
'0:08.320',4.825,0.720
'0:08.322',4.855,0.725
'0:08.324',4.840,0.720
'0:08.326',4.840,0.730
'0:08.328',4.830,0.705
'0:08.330',4.825,0.720
'0:08.332',4.830,0.725
'0:08.334',4.825,0.730
'0:08.336',4.830,0.730
'0:08.338',4.860,0.715
'0:08.340',4.850,0.730
'0:08.342',4.840,0.720
'0:08.344',4.835,0.715
'0:08.346',4.825,0.725
'0:08.348',4.835,0.715
'0:08.350',4.830,0.730
'0:08.352',4.835,0.730
'0:08.354',4.850,0.725
'0:08.356',4.845,0.730
'0:08.358',4.845,0.710
'0:08.360',4.835,0.720
'0:08.362',4.820,0.720
'0:08.364',4.845,0.720
'0:08.366',4.835,0.720
'0:08.368',4.825,0.710
'0:08.370',4.840,0.730
'0:08.372',4.845,0.730
'0:08.374',4.835,0.720
'0:08.376',4.835,0.720
'0:08.378',4.835,0.710
'0:08.380',4.860,0.725
'0:08.382',4.850,0.715
'0:08.384',4.825,0.720
'0:08.386',4.830,0.725
'0:08.388',4.830,0.730
'0:08.390',4.840,0.720
'0:08.392',4.825,0.715
'0:08.394',4.840,0.720
'0:08.396',4.845,0.720
'0:08.398',4.860,0.730
'0:08.400',4.850,0.710
'0:08.402',4.840,0.715
'0:08.404',4.840,0.725
'0:08.406',4.830,0.725
'0:08.408',4.815,0.720
'0:08.410',4.830,0.715
'0:08.412',4.835,0.720
'0:08.414',4.840,0.720
'0:08.416',4.840,0.730
'0:08.418',4.855,0.710
'0:08.420',4.860,0.725
'0:08.422',4.845,0.725
'0:08.424',4.820,0.720
'0:08.426',4.825,0.730
'0:08.428',4.825,0.700
'0:08.430',4.835,0.720
'0:08.432',4.835,0.725
'0:08.434',4.860,0.725
'0:08.436',4.855,0.720
'0:08.438',4.850,0.720
'0:08.440',4.840,0.725
'0:08.442',4.825,0.710
'0:08.444',4.825,0.720
'0:08.446',4.820,0.710
'0:08.448',4.820,0.725
'0:08.450',4.845,0.730
'0:08.452',4.855,0.725
'0:08.454',4.850,0.730
'0:08.456',4.835,0.715
'0:08.458',4.845,0.730
'0:08.460',4.815,0.720
'0:08.462',4.810,0.725
'0:08.464',4.840,0.720
'0:08.466',4.850,0.730
'0:08.468',4.855,0.725
'0:08.470',4.850,0.720
'0:08.472',4.835,0.725
'0:08.474',4.845,0.715
'0:08.476',4.820,0.720
'0:08.478',4.820,0.725
'0:08.480',4.840,0.710
'0:08.482',4.855,0.725
'0:08.484',4.850,0.725
'0:08.486',4.845,0.730
'0:08.488',4.840,0.730
'0:08.490',4.840,0.705
'0:08.492',4.825,0.720
'0:08.494',4.825,0.715
'0:08.496',4.845,0.725
'0:08.498',4.845,0.710
'0:08.500',4.850,0.735
'0:08.502',4.835,0.720
'0:08.504',4.840,0.735
'0:08.506',4.825,0.705
'0:08.508',4.825,0.725
'0:08.510',4.835,0.720
'0:08.512',4.845,0.720
'0:08.514',4.840,0.715
'0:08.516',4.845,0.730
'0:08.518',4.855,0.730
'0:08.520',4.835,0.725
'0:08.522',4.830,0.725
'0:08.524',4.815,0.715
'0:08.526',4.825,0.725
'0:08.528',4.825,0.710
'0:08.530',4.825,0.720
'0:08.532',4.860,0.725
'0:08.534',4.865,0.725
'0:08.536',4.855,0.730
'0:08.538',4.850,0.725
'0:08.540',4.830,0.715
'0:08.542',4.835,0.720
'0:08.544',4.820,0.725
'0:08.546',4.820,0.720
'0:08.548',4.825,0.725
'0:08.550',4.855,0.720
'0:08.552',4.850,0.730
'0:08.554',4.855,0.725
'0:08.556',4.845,0.730
'0:08.558',4.830,0.725
'0:08.560',4.845,0.720
'0:08.562',4.820,0.725
'0:08.564',4.810,0.720
'0:08.566',4.845,0.725
'0:08.568',4.840,0.730
'0:08.570',4.850,0.715
'0:08.572',4.835,0.730
'0:08.574',4.830,0.720
'0:08.576',4.860,0.720
'0:08.578',4.845,0.725
'0:08.580',4.830,0.720
'0:08.582',4.835,0.730
'0:08.584',4.820,0.730
'0:08.586',4.835,0.730
'0:08.588',4.830,0.720
'0:08.590',4.830,0.720
'0:08.592',4.845,0.725
'0:08.594',4.850,0.720
'0:08.596',4.835,0.720
'0:08.598',4.835,0.725
'0:08.600',4.855,0.735
'0:08.602',4.830,0.720
'0:08.604',4.820,0.730
'0:08.606',4.830,0.715
'0:08.608',4.825,0.720
'0:08.610',4.835,0.725
'0:08.612',4.820,0.710
'0:08.614',4.840,0.725
'0:08.616',4.870,0.720
'0:08.618',4.850,0.730
'0:08.620',4.845,0.730
'0:08.622',4.830,0.720
'0:08.624',4.825,0.715
'0:08.626',4.820,0.715
'0:08.628',4.820,0.720
'0:08.630',4.835,0.705
'0:08.632',4.845,0.725
'0:08.634',4.850,0.725
'0:08.636',4.845,0.730
'0:08.638',4.850,0.715
'0:08.640',4.845,0.715
'0:08.642',4.825,0.710
'0:08.644',4.815,0.715
'0:08.646',4.825,0.725
'0:08.648',4.835,0.720
'0:08.650',4.845,0.725
'0:08.652',4.840,0.730
'0:08.654',4.870,0.730
'0:08.656',4.850,0.720
'0:08.658',4.830,0.725
'0:08.660',4.820,0.720
'0:08.662',4.830,0.725
'0:08.664',4.825,0.715
'0:08.666',4.835,0.720
'0:08.668',4.855,0.730
'0:08.670',4.855,0.715
'0:08.672',4.845,0.725
'0:08.674',4.830,0.715
'0:08.676',4.815,0.725
'0:08.678',4.825,0.725
'0:08.680',4.820,0.715
'0:08.682',4.825,0.725
'0:08.684',4.855,0.725
'0:08.686',4.855,0.725
'0:08.688',4.845,0.715
'0:08.690',4.835,0.720
'0:08.692',4.835,0.715
'0:08.694',4.820,0.725
'0:08.696',4.815,0.725
'0:08.698',4.850,0.720
'0:08.700',4.850,0.715
'0:08.702',4.850,0.725
'0:08.704',4.840,0.735
'0:08.706',4.830,0.725
'0:08.708',4.825,0.715
'0:08.710',4.810,0.720
'0:08.712',4.820,0.725
'0:08.714',4.845,0.730
'0:08.716',4.855,0.720
'0:08.718',4.845,0.725
'0:08.720',4.850,0.725
'0:08.722',4.865,0.720
'0:08.724',4.840,0.725
'0:08.726',4.815,0.700
'0:08.728',4.815,0.720
'0:08.730',4.820,0.720
'0:08.732',4.840,0.730
'0:08.734',4.840,0.720
'0:08.736',4.840,0.725
'0:08.738',4.860,0.730
'0:08.740',4.850,0.715
'0:08.742',4.840,0.725
'0:08.744',4.835,0.715
'0:08.746',4.825,0.725
'0:08.748',4.830,0.725
'0:08.750',4.820,0.720
'0:08.752',4.840,0.730
'0:08.754',4.850,0.715
'0:08.756',4.855,0.730
'0:08.758',4.835,0.720
'0:08.760',4.840,0.715
'0:08.762',4.845,0.720
'0:08.764',4.850,0.725
'0:08.766',4.835,0.735
'0:08.768',4.830,0.720
'0:08.770',4.835,0.730
'0:08.772',4.845,0.720
'0:08.774',4.835,0.715
'0:08.776',4.820,0.730
'0:08.778',4.855,0.705
'0:08.780',4.850,0.720
'0:08.782',4.840,0.725
'0:08.784',4.830,0.730
'0:08.786',4.845,0.720
'0:08.788',4.830,0.725
'0:08.790',4.825,0.720
'0:08.792',4.835,0.720
'0:08.794',4.840,0.725
'0:08.796',4.845,0.715
'0:08.798',4.840,0.720
'0:08.800',4.840,0.720
'0:08.802',4.850,0.725
'0:08.804',4.835,0.720
'0:08.806',4.815,0.720
'0:08.808',4.840,0.720
'0:08.810',4.840,0.720
'0:08.812',4.845,0.720
'0:08.814',4.840,0.720
'0:08.816',4.850,0.720
'0:08.818',4.845,0.735
'0:08.820',4.825,0.715
'0:08.822',4.830,0.720
'0:08.824',4.835,0.715
'0:08.826',4.835,0.720
'0:08.828',4.835,0.710
'0:08.830',4.830,0.720
'0:08.832',4.860,0.740
'0:08.834',4.835,0.725
'0:08.836',4.820,0.730
'0:08.838',4.850,0.710
'0:08.840',4.835,0.720
'0:08.842',4.835,0.720
'0:08.844',4.835,0.725
'0:08.846',4.840,0.715
'0:08.848',4.855,0.725
'0:08.850',4.840,0.725
'0:08.852',4.830,0.735
'0:08.854',4.825,0.720
'0:08.856',4.835,0.720
'0:08.858',4.825,0.720
'0:08.860',4.835,0.720
'0:08.862',4.845,0.725
'0:08.864',4.850,0.710
'0:08.866',4.855,0.720
'0:08.868',4.845,0.720
'0:08.870',4.860,0.725
'0:08.872',4.830,0.725
'0:08.874',4.820,0.705
'0:08.876',4.825,0.720
'0:08.878',4.830,0.720
'0:08.880',4.845,0.715
'0:08.882',4.835,0.715
'0:08.884',4.860,0.730
'0:08.886',4.855,0.725
'0:08.888',4.850,0.735
'0:08.890',4.830,0.715
'0:08.892',4.830,0.725
'0:08.894',4.820,0.720
'0:08.896',4.815,0.720
'0:08.898',4.835,0.720
'0:08.900',4.845,0.725
'0:08.902',4.855,0.730
'0:08.904',4.845,0.715
'0:08.906',4.835,0.715
'0:08.908',4.860,0.715
'0:08.910',4.830,0.725
'0:08.912',4.815,0.720
'0:08.914',4.820,0.720
'0:08.916',4.845,0.720
'0:08.918',4.835,0.730
'0:08.920',4.835,0.730
'0:08.922',4.855,0.715
'0:08.924',4.850,0.720
'0:08.926',4.840,0.720
'0:08.928',4.835,0.720
'0:08.930',4.825,0.725
'0:08.932',4.840,0.720
'0:08.934',4.825,0.725
'0:08.936',4.825,0.725
'0:08.938',4.850,0.730
'0:08.940',4.840,0.705
'0:08.942',4.840,0.725
'0:08.944',4.835,0.725
'0:08.946',4.850,0.715
'0:08.948',4.845,0.725
'0:08.950',4.835,0.715
'0:08.952',4.830,0.725
'0:08.954',4.825,0.720
'0:08.956',4.840,0.725
'0:08.958',4.825,0.715
'0:08.960',4.835,0.720
'0:08.962',4.855,0.720
'0:08.964',4.850,0.720
'0:08.966',4.845,0.725
'0:08.968',4.835,0.725
'0:08.970',4.840,0.730
'0:08.972',4.825,0.720
'0:08.974',4.825,0.715
'0:08.976',4.850,0.720
'0:08.978',4.850,0.715
'0:08.980',4.845,0.730
'0:08.982',4.835,0.715
'0:08.984',4.830,0.725
'0:08.986',4.830,0.725
'0:08.988',4.835,0.730
'0:08.990',4.830,0.725
'0:08.992',4.840,0.705
'0:08.994',4.840,0.720
'0:08.996',4.840,0.715
'0:08.998',4.835,0.735
'0:09.000',4.825,0.725
'0:09.002',4.835,0.715
'0:09.004',4.840,0.725
'0:09.006',4.835,0.720
'0:09.008',4.860,0.725
'0:09.010',4.845,0.710
'0:09.012',4.830,0.715
'0:09.014',4.825,0.730
'0:09.016',4.825,0.720
'0:09.018',4.835,0.725
'0:09.020',4.835,0.720
'0:09.022',4.830,0.725
'0:09.024',4.855,0.725
'0:09.026',4.840,0.715
'0:09.028',4.835,0.725
'0:09.030',4.830,0.715
'0:09.032',4.830,0.725
'0:09.034',4.835,0.735
'0:09.036',4.825,0.720
'0:09.038',4.835,0.725
'0:09.040',4.845,0.715
'0:09.042',4.840,0.725
'0:09.044',4.840,0.710
'0:09.046',4.840,0.715
'0:09.048',4.845,0.725
'0:09.050',4.845,0.720
'0:09.052',4.830,0.730
'0:09.054',4.820,0.720
'0:09.056',4.830,0.710
'0:09.058',4.820,0.720
'0:09.060',4.840,0.720
'0:09.062',4.825,0.725
'0:09.064',4.835,0.725
'0:09.066',4.865,0.710
'0:09.068',4.855,0.725
'0:09.070',4.840,0.730
'0:09.072',4.830,0.725
'0:09.074',4.815,0.715
'0:09.076',4.825,0.710
'0:09.078',4.815,0.720
'0:09.080',4.820,0.725
'0:09.082',4.870,0.725
'0:09.084',4.845,0.720
'0:09.086',4.850,0.730
'0:09.088',4.850,0.720
'0:09.090',4.830,0.715
'0:09.092',4.840,0.720
'0:09.094',4.815,0.720
'0:09.096',4.810,0.715
'0:09.098',4.835,0.735
'0:09.100',4.840,0.715
'0:09.102',4.845,0.730
'0:09.104',4.845,0.720
'0:09.106',4.850,0.715
'0:09.108',4.845,0.725
'0:09.110',4.825,0.715
'0:09.112',4.810,0.725
'0:09.114',4.820,0.720
'0:09.116',4.835,0.725
'0:09.118',4.840,0.715
'0:09.120',4.835,0.720
'0:09.122',4.870,0.720
'0:09.124',4.840,0.715
'0:09.126',4.830,0.725
'0:09.128',4.825,0.715
'0:09.130',4.820,0.720
'0:09.132',4.840,0.725
'0:09.134',4.835,0.725
'0:09.136',4.840,0.730
'0:09.138',4.860,0.705
'0:09.140',4.855,0.720
'0:09.142',4.845,0.725
'0:09.144',4.820,0.720
'0:09.146',4.820,0.705
'0:09.148',4.830,0.725
'0:09.150',4.825,0.720
'0:09.152',4.850,0.725
'0:09.154',4.865,0.715
'0:09.156',4.845,0.715
'0:09.158',4.835,0.720
'0:09.160',4.810,0.720
'0:09.162',4.830,0.720
'0:09.164',4.820,0.715
'0:09.166',4.830,0.725
'0:09.168',4.860,0.725
'0:09.170',4.860,0.720
'0:09.172',4.835,0.730
'0:09.174',4.825,0.715
'0:09.176',4.820,0.720
'0:09.178',4.815,0.720
'0:09.180',4.825,0.710
'0:09.182',4.850,0.720
'0:09.184',4.845,0.730
'0:09.186',4.845,0.730
'0:09.188',4.845,0.715
'0:09.190',4.835,0.720
'0:09.192',4.850,0.715
'0:09.194',4.835,0.720
'0:09.196',4.815,0.715
'0:09.198',4.830,0.715
'0:09.200',4.830,0.725
'0:09.202',4.855,0.720
'0:09.204',4.845,0.730
'0:09.206',4.835,0.725
'0:09.208',4.860,0.710
'0:09.210',4.850,0.720
'0:09.212',4.835,0.720
'0:09.214',4.830,0.725
'0:09.216',4.825,0.725
'0:09.218',4.840,0.720
'0:09.220',4.825,0.725
'0:09.222',4.830,0.720
'0:09.224',4.840,0.725
'0:09.226',4.840,0.720
'0:09.228',4.835,0.715
'0:09.230',4.835,0.725
'0:09.232',4.850,0.715
'0:09.234',4.850,0.730
'0:09.236',4.830,0.715
'0:09.238',4.835,0.730
'0:09.240',4.825,0.715
'0:09.242',4.835,0.725
'0:09.244',4.825,0.715
'0:09.246',4.830,0.720
'0:09.248',4.860,0.730
'0:09.250',4.850,0.720
'0:09.252',4.840,0.730
'0:09.254',4.840,0.725
'0:09.256',4.835,0.720
'0:09.258',4.825,0.720
'0:09.260',4.810,0.720
'0:09.262',4.840,0.715
'0:09.264',4.835,0.725
'0:09.266',4.845,0.720
'0:09.268',4.840,0.725
'0:09.270',4.870,0.725
'0:09.272',4.850,0.720
'0:09.274',4.830,0.720
'0:09.276',4.815,0.715
'0:09.278',4.830,0.715
'0:09.280',4.810,0.720
'0:09.282',4.830,0.720
'0:09.284',4.840,0.725
'0:09.286',4.860,0.725
'0:09.288',4.845,0.730
'0:09.290',4.845,0.725
'0:09.292',4.855,0.715
'0:09.294',4.830,0.720
'0:09.296',4.815,0.725
'0:09.298',4.825,0.730
'0:09.300',4.835,0.725
'0:09.302',4.835,0.725
'0:09.304',4.830,0.725
'0:09.306',4.870,0.725
'0:09.308',4.845,0.715
'0:09.310',4.830,0.715
'0:09.312',4.830,0.725
'0:09.314',4.825,0.720
'0:09.316',4.830,0.725
'0:09.318',4.830,0.725
'0:09.320',4.845,0.730
'0:09.322',4.850,0.720
'0:09.324',4.830,0.720
'0:09.326',4.825,0.720
'0:09.328',4.835,0.725
'0:09.330',4.820,0.710
'0:09.332',4.815,0.725
'0:09.334',4.840,0.725
'0:09.336',4.840,0.725
'0:09.338',4.850,0.720
'0:09.340',4.840,0.720
'0:09.342',4.845,0.725
'0:09.344',4.815,0.720
'0:09.346',4.815,0.725
'0:09.348',4.845,0.720
'0:09.350',4.840,0.715
'0:09.352',4.850,0.725
'0:09.354',4.855,0.720
'0:09.356',4.840,0.735
'0:09.358',4.840,0.710
'0:09.360',4.815,0.715
'0:09.362',4.825,0.725
'0:09.364',4.830,0.725
'0:09.366',4.870,0.730
'0:09.368',4.850,0.720
'0:09.370',4.845,0.720
'0:09.372',4.835,0.735
'0:09.374',4.825,0.715
'0:09.376',4.820,0.725
'0:09.378',4.815,0.705
'0:09.380',4.830,0.725
'0:09.382',4.850,0.730
'0:09.384',4.850,0.715
'0:09.386',4.845,0.730
'0:09.388',4.850,0.720
'0:09.390',4.860,0.720
'0:09.392',4.825,0.715
'0:09.394',4.815,0.715
'0:09.396',4.815,0.720
'0:09.398',4.830,0.730
'0:09.400',4.840,0.730
'0:09.402',4.845,0.715
'0:09.404',4.850,0.725
'0:09.406',4.855,0.720
'0:09.408',4.845,0.725
'0:09.410',4.835,0.725
'0:09.412',4.830,0.710
'0:09.414',4.820,0.720
'0:09.416',4.840,0.720
'0:09.418',4.830,0.725
'0:09.420',4.830,0.735
'0:09.422',4.850,0.715
'0:09.424',4.840,0.720
'0:09.426',4.845,0.710
'0:09.428',4.840,0.725
'0:09.430',4.835,0.720
'0:09.432',4.845,0.720
'0:09.434',4.840,0.725
'0:09.436',4.830,0.730
'0:09.438',4.825,0.720
'0:09.440',4.850,0.725
'0:09.442',4.840,0.720
'0:09.444',4.845,0.715
'0:09.446',4.835,0.725
'0:09.448',4.845,0.735
'0:09.450',4.865,0.725
'0:09.452',4.850,0.735
'0:09.454',4.830,0.720
'0:09.456',4.825,0.725
'0:09.458',4.825,0.720
'0:09.460',4.835,0.715
'0:09.462',4.830,0.715
'0:09.464',4.830,0.715
'0:09.466',4.875,0.730
'0:09.468',4.860,0.720
'0:09.470',4.840,0.725
'0:09.472',4.835,0.725
'0:09.474',4.815,0.720
'0:09.476',4.825,0.725
'0:09.478',4.815,0.710
'0:09.480',4.830,0.725
'0:09.482',4.845,0.720
'0:09.484',4.850,0.730
'0:09.486',4.845,0.730
'0:09.488',4.855,0.715
'0:09.490',4.840,0.710
'0:09.492',4.840,0.715
'0:09.494',4.820,0.720
'0:09.496',4.820,0.720
'0:09.498',4.835,0.715
'0:09.500',4.845,0.720
'0:09.502',4.850,0.725
'0:09.504',4.845,0.730
'0:09.506',4.840,0.725
'0:09.508',4.850,0.705
'0:09.510',4.840,0.700
'0:09.512',4.820,0.720
'0:09.514',4.825,0.725
'0:09.516',4.850,0.725
'0:09.518',4.850,0.720
'0:09.520',4.855,0.725
'0:09.522',4.845,0.725
'0:09.524',4.850,0.715
'0:09.526',4.830,0.715
'0:09.528',4.825,0.710
'0:09.530',4.830,0.725
'0:09.532',4.850,0.730
'0:09.534',4.850,0.720
'0:09.536',4.855,0.730
'0:09.538',4.845,0.720
'0:09.540',4.845,0.725
'0:09.542',4.820,0.710
'0:09.544',4.815,0.720
'0:09.546',4.845,0.715
'0:09.548',4.850,0.735
'0:09.550',4.845,0.720
'0:09.552',4.845,0.730
'0:09.554',4.855,0.720
'0:09.556',4.825,0.730
'0:09.558',4.810,0.710
'0:09.560',4.835,0.720
'0:09.562',4.840,0.715
'0:09.564',4.840,0.720
'0:09.566',4.845,0.730
'0:09.568',4.865,0.720
'0:09.570',4.845,0.725
'0:09.572',4.825,0.725
'0:09.574',4.820,0.720
'0:09.576',4.830,0.710
'0:09.578',4.835,0.715
'0:09.580',4.825,0.720
'0:09.582',4.865,0.730
'0:09.584',4.865,0.725
'0:09.586',4.850,0.725
'0:09.588',4.840,0.735
'0:09.590',4.835,0.715
'0:09.592',4.825,0.720
'0:09.594',4.810,0.720
'0:09.596',4.830,0.720
'0:09.598',4.840,0.725
'0:09.600',4.835,0.715
'0:09.602',4.850,0.725
'0:09.604',4.860,0.725
'0:09.606',4.855,0.720
'0:09.608',4.840,0.720
'0:09.610',4.820,0.720
'0:09.612',4.835,0.715
'0:09.614',4.815,0.720
'0:09.616',4.820,0.720
'0:09.618',4.845,0.725
'0:09.620',4.840,0.730
'0:09.622',4.840,0.715
'0:09.624',4.835,0.730
'0:09.626',4.860,0.720
'0:09.628',4.835,0.725
'0:09.630',4.825,0.705
'0:09.632',4.835,0.725
'0:09.634',4.840,0.725
'0:09.636',4.830,0.730
'0:09.638',4.845,0.715
'0:09.640',4.835,0.720
'0:09.642',4.840,0.720
'0:09.644',4.835,0.725
'0:09.646',4.835,0.715
'0:09.648',4.855,0.720
'0:09.650',4.840,0.725
'0:09.652',4.835,0.725
'0:09.654',4.830,0.735
'0:09.656',4.835,0.715
'0:09.658',4.825,0.725
'0:09.660',4.825,0.720
'0:09.662',4.855,0.725
'0:09.664',4.845,0.720
'0:09.666',4.850,0.720
'0:09.668',4.850,0.725
'0:09.670',4.820,0.725
'0:09.672',4.840,0.725
'0:09.674',4.815,0.715
'0:09.676',4.815,0.715
'0:09.678',4.850,0.720
'0:09.680',4.850,0.725
'0:09.682',4.855,0.730
'0:09.684',4.850,0.730
'0:09.686',4.845,0.720
'0:09.688',4.840,0.725
'0:09.690',4.825,0.715
'0:09.692',4.810,0.715
'0:09.694',4.840,0.715
'0:09.696',4.835,0.725
'0:09.698',4.840,0.730
'0:09.700',4.845,0.720
'0:09.702',4.845,0.730
'0:09.704',4.855,0.725
'0:09.706',4.825,0.735
'0:09.708',4.810,0.720
'0:09.710',4.825,0.715
'0:09.712',4.840,0.715
'0:09.714',4.840,0.730
'0:09.716',4.850,0.725
'0:09.718',4.850,0.715
'0:09.720',4.860,0.725
'0:09.722',4.830,0.730
'0:09.724',4.805,0.720
'0:09.726',4.825,0.725
'0:09.728',4.835,0.720
'0:09.730',4.845,0.715
'0:09.732',4.845,0.730
'0:09.734',4.840,0.730
'0:09.736',4.865,0.725
'0:09.738',4.845,0.730
'0:09.740',4.835,0.720
'0:09.742',4.820,0.725
'0:09.744',4.820,0.720
'0:09.746',4.830,0.725
'0:09.748',4.835,0.725
'0:09.750',4.830,0.725
'0:09.752',4.860,0.735
'0:09.754',4.860,0.730
'0:09.756',4.850,0.725
'0:09.758',4.815,0.725
'0:09.760',4.820,0.720
'0:09.762',4.805,0.720
'0:09.764',4.825,0.725
'0:09.766',4.835,0.720
'0:09.768',4.835,0.715
'0:09.770',4.855,0.725
'0:09.772',4.855,0.730
'0:09.774',4.840,0.730
'0:09.776',4.830,0.705
'0:09.778',4.815,0.715
'0:09.780',4.830,0.720
'0:09.782',4.830,0.730
'0:09.784',4.830,0.725
'0:09.786',4.840,0.725
'0:09.788',4.860,0.720
'0:09.790',4.840,0.720
'0:09.792',4.840,0.720
'0:09.794',4.835,0.730
'0:09.796',4.845,0.710
'0:09.798',4.825,0.725
'0:09.800',4.820,0.725
'0:09.802',4.850,0.730
'0:09.804',4.840,0.720
'0:09.806',4.835,0.720
'0:09.808',4.835,0.725
'0:09.810',4.860,0.720
'0:09.812',4.840,0.715
'0:09.814',4.830,0.730
'0:09.816',4.835,0.725
'0:09.818',4.840,0.720
'0:09.820',4.835,0.730
'0:09.822',4.830,0.720
'0:09.824',4.830,0.725
'0:09.826',4.850,0.725
'0:09.828',4.845,0.715
'0:09.830',4.835,0.730
'0:09.832',4.845,0.720
'0:09.834',4.835,0.725
'0:09.836',4.835,0.730
'0:09.838',4.825,0.720
'0:09.840',4.810,0.720
'0:09.842',4.845,0.710
'0:09.844',4.835,0.720
'0:09.846',4.845,0.725
'0:09.848',4.840,0.715
'0:09.850',4.850,0.725
'0:09.852',4.865,0.725
'0:09.854',4.840,0.730
'0:09.856',4.825,0.730
'0:09.858',4.830,0.710
'0:09.860',4.830,0.720
'0:09.862',4.840,0.720
'0:09.864',4.835,0.725
'0:09.866',4.845,0.715
'0:09.868',4.860,0.725
'0:09.870',4.850,0.725
'0:09.872',4.830,0.725
'0:09.874',4.825,0.725
'0:09.876',4.830,0.715
'0:09.878',4.835,0.715
'0:09.880',4.835,0.720
'0:09.882',4.850,0.725
'0:09.884',4.865,0.725
'0:09.886',4.845,0.715
'0:09.888',4.825,0.730
'0:09.890',4.820,0.720
'0:09.892',4.835,0.720
'0:09.894',4.825,0.715
'0:09.896',4.825,0.720
'0:09.898',4.865,0.725
'0:09.900',4.845,0.720
'0:09.902',4.840,0.725
'0:09.904',4.825,0.720
'0:09.906',4.820,0.720
'0:09.908',4.835,0.730
'0:09.910',4.830,0.710
'0:09.912',4.835,0.725
'0:09.914',4.860,0.715
'0:09.916',4.845,0.730
'0:09.918',4.840,0.735
'0:09.920',4.825,0.715
'0:09.922',4.830,0.710
'0:09.924',4.830,0.720
'0:09.926',4.835,0.720
'0:09.928',4.840,0.720
'0:09.930',4.860,0.705
'0:09.932',4.850,0.725
'0:09.934',4.835,0.725
'0:09.936',4.835,0.735
'0:09.938',4.835,0.725
'0:09.940',4.840,0.710
'0:09.942',4.840,0.720
'0:09.944',4.825,0.720
'0:09.946',4.855,0.725
'0:09.948',4.850,0.715
'0:09.950',4.840,0.720
'0:09.952',4.835,0.720
'0:09.954',4.830,0.725
'0:09.956',4.830,0.725
'0:09.958',4.835,0.715
'0:09.960',4.830,0.715
'0:09.962',4.845,0.720
'0:09.964',4.845,0.725
'0:09.966',4.850,0.725
'0:09.968',4.835,0.725
'0:09.970',4.855,0.725
'0:09.972',4.830,0.715
'0:09.974',4.810,0.720
'0:09.976',4.830,0.715
'0:09.978',4.835,0.720
'0:09.980',4.835,0.720
'0:09.982',4.845,0.725
'0:09.984',4.865,0.720
'0:09.986',4.850,0.730
'0:09.988',4.840,0.730
'0:09.990',4.825,0.705
'0:09.992',4.820,0.720
'0:09.994',4.825,0.720
'0:09.996',4.825,0.725
'0:09.998',4.830,0.720
'0:10.000',4.850,0.720
'0:10.002',4.850,0.725
'0:10.004',4.850,0.725
'0:10.006',4.840,0.735
'0:10.008',4.850,0.715
'0:10.010',4.825,0.720
'0:10.012',4.810,0.720
'0:10.014',4.835,0.725
'0:10.016',4.840,0.730
'0:10.018',4.855,0.720
'0:10.020',4.840,0.725
'0:10.022',4.840,0.725
'0:10.024',4.855,0.720
'0:10.026',4.835,0.725
'0:10.028',4.815,0.710
'0:10.030',4.820,0.720
'0:10.032',4.830,0.725
'0:10.034',4.840,0.720
'0:10.036',4.840,0.725
'0:10.038',4.850,0.720
'0:10.040',4.840,0.720
'0:10.042',4.850,0.730
'0:10.044',4.820,0.715
'0:10.046',4.815,0.725
'0:10.048',4.835,0.725
'0:10.050',4.850,0.735
'0:10.052',4.845,0.720
'0:10.054',4.850,0.725
'0:10.056',4.860,0.720
'0:10.058',4.840,0.725
'0:10.060',4.820,0.720
'0:10.062',4.820,0.705
'0:10.064',4.825,0.730
'0:10.066',4.845,0.725
'0:10.068',4.840,0.730
'0:10.070',4.840,0.725
'0:10.072',4.870,0.720
'0:10.074',4.840,0.725
'0:10.076',4.820,0.720
'0:10.078',4.820,0.715
'0:10.080',4.830,0.725
'0:10.082',4.835,0.725
'0:10.084',4.835,0.720
'0:10.086',4.845,0.730
'0:10.088',4.845,0.730
'0:10.090',4.850,0.715
'0:10.092',4.860,0.725
'0:10.094',4.835,0.720
'0:10.096',4.820,0.725
'0:10.098',4.830,0.730
'0:10.100',4.825,0.720
'0:10.102',4.840,0.725
'0:10.104',4.840,0.720
'0:10.106',4.835,0.725
'0:10.108',4.850,0.725
'0:10.110',4.840,0.720
'0:10.112',4.840,0.720
'0:10.114',4.830,0.725
'0:10.116',4.830,0.720
'0:10.118',4.835,0.730
'0:10.120',4.830,0.725
'0:10.122',4.820,0.720
'0:10.124',4.825,0.725
'0:10.126',4.850,0.715
'0:10.128',4.850,0.725
'0:10.130',4.845,0.725
'0:10.132',4.840,0.720
'0:10.134',4.840,0.730
'0:10.136',4.850,0.735
'0:10.138',4.825,0.730
'0:10.140',4.815,0.705
'0:10.142',4.830,0.720
'0:10.144',4.835,0.720
'0:10.146',4.835,0.725
'0:10.148',4.840,0.715
'0:10.150',4.860,0.725
'0:10.152',4.850,0.725
'0:10.154',4.845,0.725
'0:10.156',4.820,0.720
'0:10.158',4.830,0.715
'0:10.160',4.820,0.725
'0:10.162',4.815,0.720
'0:10.164',4.845,0.730
'0:10.166',4.850,0.720
'0:10.168',4.850,0.725
'0:10.170',4.850,0.730
'0:10.172',4.850,0.725
'0:10.174',4.830,0.725
'0:10.176',4.815,0.715
'0:10.178',4.815,0.720
'0:10.180',4.835,0.720
'0:10.182',4.850,0.720
'0:10.184',4.850,0.725
'0:10.186',4.845,0.720
'0:10.188',4.860,0.735
'0:10.190',4.835,0.720
'0:10.192',4.810,0.725
'0:10.194',4.835,0.715
'0:10.196',4.835,0.720
'0:10.198',4.850,0.730
'0:10.200',4.850,0.720
'0:10.202',4.845,0.730
'0:10.204',4.855,0.730
'0:10.206',4.825,0.720
'0:10.208',4.815,0.710
'0:10.210',4.830,0.720
'0:10.212',4.835,0.725
'0:10.214',4.835,0.720
'0:10.216',4.845,0.730
'0:10.218',4.875,0.710
'0:10.220',4.845,0.725
'0:10.222',4.840,0.730
'0:10.224',4.830,0.725
'0:10.226',4.825,0.710
'0:10.228',4.830,0.720
'0:10.230',4.820,0.725
'0:10.232',4.855,0.730
'0:10.234',4.845,0.725
'0:10.236',4.845,0.725
'0:10.238',4.845,0.725
'0:10.240',4.835,0.715
'0:10.242',4.840,0.725
'0:10.244',4.820,0.715
'0:10.246',4.815,0.720
'0:10.248',4.840,0.735
'0:10.250',4.820,0.720
'0:10.252',4.845,0.725
'0:10.254',4.840,0.710
'0:10.256',4.850,0.725
'0:10.258',4.845,0.725
'0:10.260',4.835,0.710
'0:10.262',4.815,0.720
'0:10.264',4.825,0.730
'0:10.266',4.835,0.730
'0:10.268',4.830,0.720
'0:10.270',4.835,0.720
'0:10.272',4.850,0.720
'0:10.274',4.845,0.730
'0:10.276',4.840,0.710
'0:10.278',4.835,0.710
'0:10.280',4.855,0.715
'0:10.282',4.840,0.725
'0:10.284',4.830,0.730
'0:10.286',4.830,0.720
'0:10.288',4.830,0.725
'0:10.290',4.830,0.715
'0:10.292',4.840,0.725
'0:10.294',4.855,0.705
'0:10.296',4.840,0.720
'0:10.298',4.845,0.730
'0:10.300',4.850,0.730
'0:10.302',4.845,0.715
'0:10.304',4.845,0.730
'0:10.306',4.820,0.720
'0:10.308',4.830,0.730
'0:10.310',4.830,0.710
'0:10.312',4.825,0.730
'0:10.314',4.835,0.720
'0:10.316',4.870,0.730
'0:10.318',4.860,0.715
'0:10.320',4.840,0.725
'0:10.322',4.835,0.725
'0:10.324',4.840,0.725
'0:10.326',4.815,0.710
'0:10.328',4.825,0.720
'0:10.330',4.840,0.725
'0:10.332',4.855,0.730
'0:10.334',4.840,0.725
'0:10.336',4.840,0.730
'0:10.338',4.870,0.730
'0:10.340',4.835,0.715
'0:10.342',4.820,0.715
'0:10.344',4.820,0.710
'0:10.346',4.830,0.720
'0:10.348',4.855,0.730
'0:10.350',4.845,0.715
'0:10.352',4.840,0.730
'0:10.354',4.860,0.725
'0:10.356',4.830,0.725
'0:10.358',4.805,0.720
'0:10.360',4.840,0.715
'0:10.362',4.835,0.725
'0:10.364',4.840,0.725
'0:10.366',4.850,0.725
'0:10.368',4.860,0.710
'0:10.370',4.845,0.730
'0:10.372',4.825,0.725
'0:10.374',4.815,0.720
'0:10.376',4.835,0.725
'0:10.378',4.840,0.710
'0:10.380',4.845,0.720
'0:10.382',4.840,0.730
'0:10.384',4.845,0.725
'0:10.386',4.835,0.730
'0:10.388',4.800,0.720
'0:10.390',4.850,0.720
'0:10.392',4.840,0.715
'0:10.394',4.835,0.725
'0:10.396',4.840,0.715
'0:10.398',4.835,0.725
'0:10.400',4.835,0.725
'0:10.402',4.825,0.720
'0:10.404',4.820,0.725
'0:10.406',4.845,0.715
'0:10.408',4.845,0.725
'0:10.410',4.830,0.710
'0:10.412',4.835,0.720
'0:10.414',4.855,0.715
'0:10.416',4.835,0.725
'0:10.418',4.825,0.725
'0:10.420',4.835,0.720
'0:10.422',4.840,0.720
'0:10.424',4.825,0.725
'0:10.426',4.840,0.720
